Subject,Intervention,SessionOrder,Is_Stim,Frequency,Intensity,PrePost,Speed,Trial,ANKLE_RMSE_JointAngles_U,ANKLE_RMSE_JointAngles_A,HIP_RMSE_JointAngles_U,HIP_RMSE_JointAngles_A,KNEE_RMSE_JointAngles_U,KNEE_RMSE_JointAngles_A,HAM_RMSE_EMG_U,HAM_RMSE_EMG_A,MG_RMSE_EMG_U,MG_RMSE_EMG_A,RF_RMSE_EMG_U,RF_RMSE_EMG_A,TA_RMSE_EMG_U,TA_RMSE_EMG_A,VL_RMSE_EMG_U,VL_RMSE_EMG_A,ANKLE_Lag_JointAngles_CrossCorr_U,ANKLE_Lag_JointAngles_CrossCorr_A,ANKLE_Mag_JointAngles_CrossCorr_U,ANKLE_Mag_JointAngles_CrossCorr_A,HIP_Lag_JointAngles_CrossCorr_U,HIP_Lag_JointAngles_CrossCorr_A,HIP_Mag_JointAngles_CrossCorr_U,HIP_Mag_JointAngles_CrossCorr_A,KNEE_Lag_JointAngles_CrossCorr_U,KNEE_Lag_JointAngles_CrossCorr_A,KNEE_Mag_JointAngles_CrossCorr_U,KNEE_Mag_JointAngles_CrossCorr_A,HAM_Lag_EMG_CrossCorr_U,HAM_Lag_EMG_CrossCorr_A,HAM_Mag_EMG_CrossCorr_U,HAM_Mag_EMG_CrossCorr_A,MG_Lag_EMG_CrossCorr_U,MG_Lag_EMG_CrossCorr_A,MG_Mag_EMG_CrossCorr_U,MG_Mag_EMG_CrossCorr_A,RF_Lag_EMG_CrossCorr_U,RF_Lag_EMG_CrossCorr_A,RF_Mag_EMG_CrossCorr_U,RF_Mag_EMG_CrossCorr_A,TA_Lag_EMG_CrossCorr_U,TA_Lag_EMG_CrossCorr_A,TA_Mag_EMG_CrossCorr_U,TA_Mag_EMG_CrossCorr_A,VL_Lag_EMG_CrossCorr_U,VL_Lag_EMG_CrossCorr_A,VL_Mag_EMG_CrossCorr_U,VL_Mag_EMG_CrossCorr_A,ANKLE_AUC_JointAngles_Sym_U,ANKLE_AUC_JointAngles_Sym_A,ANKLE_JointAngles_Max_Sym_U,ANKLE_JointAngles_Max_Sym_A,ANKLE_JointAngles_Min_Sym_U,ANKLE_JointAngles_Min_Sym_A,ANKLE_JointAngles_Range_Sym_U,ANKLE_JointAngles_Range_Sym_A,ANKLE_MaxPeakIndex_JointAngles_Sym_U,ANKLE_MaxPeakIndex_JointAngles_Sym_A,ANKLE_MinPeakIndex_JointAngles_Sym_U,ANKLE_MinPeakIndex_JointAngles_Sym_A,ANKLE_RMS_JointAngles_Sym_U,ANKLE_RMS_JointAngles_Sym_A,Double_Support_Time_GR_Sym_U,Double_Support_Time_GR_Sym_A,HAM_AUC_EMG_Sym_U,HAM_AUC_EMG_Sym_A,HAM_MaxPeakIndex_EMG_Sym_U,HAM_MaxPeakIndex_EMG_Sym_A,HAM_RMS_EMG_Sym_U,HAM_RMS_EMG_Sym_A,HIP_AUC_JointAngles_Sym_U,HIP_AUC_JointAngles_Sym_A,HIP_JointAngles_Max_Sym_U,HIP_JointAngles_Max_Sym_A,HIP_JointAngles_Min_Sym_U,HIP_JointAngles_Min_Sym_A,HIP_JointAngles_Range_Sym_U,HIP_JointAngles_Range_Sym_A,HIP_MaxPeakIndex_JointAngles_Sym_U,HIP_MaxPeakIndex_JointAngles_Sym_A,HIP_MinPeakIndex_JointAngles_Sym_U,HIP_MinPeakIndex_JointAngles_Sym_A,HIP_RMS_JointAngles_Sym_U,HIP_RMS_JointAngles_Sym_A,KNEE_AUC_JointAngles_Sym_U,KNEE_AUC_JointAngles_Sym_A,KNEE_JointAngles_Max_Sym_U,KNEE_JointAngles_Max_Sym_A,KNEE_JointAngles_Min_Sym_U,KNEE_JointAngles_Min_Sym_A,KNEE_JointAngles_Range_Sym_U,KNEE_JointAngles_Range_Sym_A,KNEE_MaxPeakIndex_JointAngles_Sym_U,KNEE_MaxPeakIndex_JointAngles_Sym_A,KNEE_MinPeakIndex_JointAngles_Sym_U,KNEE_MinPeakIndex_JointAngles_Sym_A,KNEE_RMS_JointAngles_Sym_U,KNEE_RMS_JointAngles_Sym_A,MG_AUC_EMG_Sym_U,MG_AUC_EMG_Sym_A,MG_MaxPeakIndex_EMG_Sym_U,MG_MaxPeakIndex_EMG_Sym_A,MG_RMS_EMG_Sym_U,MG_RMS_EMG_Sym_A,NumSynergies_Sym_U,NumSynergies_Sym_A,RF_AUC_EMG_Sym_U,RF_AUC_EMG_Sym_A,RF_MaxPeakIndex_EMG_Sym_U,RF_MaxPeakIndex_EMG_Sym_A,RF_RMS_EMG_Sym_U,RF_RMS_EMG_Sym_A,Single_Support_Time_GR_Sym_U,Single_Support_Time_GR_Sym_A,StanceDurations_GR_Sym_U,StanceDurations_GR_Sym_A,StancePhasePerc_GR_Sym_U,StancePhasePerc_GR_Sym_A,StepDurations_GR_Sym_U,StepDurations_GR_Sym_A,StepLengths_GR_Sym_U,StepLengths_GR_Sym_A,StepWidths_GR_Sym_U,StepWidths_GR_Sym_A,StrideDurations_GR_Sym_U,StrideDurations_GR_Sym_A,StrideLengths_GR_Sym_U,StrideLengths_GR_Sym_A,StrideVelocities_GR_Sym_U,StrideVelocities_GR_Sym_A,StrideWidths_GR_Sym_U,StrideWidths_GR_Sym_A,SwingDurations_GR_Sym_U,SwingDurations_GR_Sym_A,SwingPhasePerc_GR_Sym_U,SwingPhasePerc_GR_Sym_A,TA_AUC_EMG_Sym_U,TA_AUC_EMG_Sym_A,TA_MaxPeakIndex_EMG_Sym_U,TA_MaxPeakIndex_EMG_Sym_A,TA_RMS_EMG_Sym_U,TA_RMS_EMG_Sym_A,VL_AUC_EMG_Sym_U,VL_AUC_EMG_Sym_A,VL_MaxPeakIndex_EMG_Sym_U,VL_MaxPeakIndex_EMG_Sym_A,VL_RMS_EMG_Sym_U,VL_RMS_EMG_Sym_A,TenMWT_U,TenMWT_A
SS01,RMT30,5,STIM,30,RMT,POST,FV,1,13.9423013876129,13.4024246151277,10.2665794008732,11.21057948942,14.2659565041859,14.7032600667028,0.224933870059621,0.237780696195679,0.130227174655044,0.130978030765703,0.358983551052414,0.361195389661144,0.248558601495839,0.200602924285961,0.304220942057133,0.309018517247558,-18,-18,0.593339901823499,0.615476016658767,0,0,0.896632679898624,0.890441295733126,0,0,0.913586229094919,0.917477465966543,0,0,0.87637322349888,0.857824931092294,0,0,0.8825220614423,0.87146503341021,0,0,0.91882855604126,0.923321052151244,0,0,0.930749742744646,0.906442643736281,0,0,0.946830984429739,0.919960744435054,157.280347220156,161.770447654527,44.9419948411126,45.7826715890155,-28.2075430540167,-25.0387100278862,13.84967685314,8.17596261831468,39.2523364485981,37.7358490566038,22.5352112676056,24.113475177305,24.6798533876352,18.1286855702907,6.70103092783506,2.75908588707333,15.8801264488493,9.0265401726505,133.884297520661,128.455284552846,15.8574748304893,14.0584120986488,22.529467658845,24.1076940903543,3.71703933010489,5.00046124293963,-577.803734569195,-675.840372405602,33.2916065885881,32.7170810110085,4.21052631578947,2.12765957446809,19.3548387096774,21.1382113821138,3.589036410532,4.59374312034546,30.1608682316685,28.2462955726756,83.799505918201,84.0760100088088,28.8696387370129,27.6168848270794,94.3934575953888,93.5271376442604,3.55029585798817,7.2289156626506,31.8840579710145,23.5294117647059,47.499031882526,47.3580150134398,14.1101444398272,19.1398001406425,83.8709677419355,109.333333333333,31.6239931779545,30.632831578489,0,66.6666666666667,151.860281650361,153.711451880596,44,47.0588235294118,151.471257998332,152.45503792353,43.5462842242503,45.0575964594205,23.5979424137404,23.0611723216894,19.2180889448588,23.5374959915709,45.7583547557841,48.8888888888889,27.0799208662171,28.4283374716044,9.10388640467388,8.03205297016665,3.06859205776174,2.11954217888935,4.04429517820617,1.95988726412163,2.80586192810457,2.26196513567514,4.68644758764934,1.70421891632238,38.3631713554987,43.5462842242503,37.2249160760909,44.9086618302596,58.4754757051467,39.1892815495055,131.914893617021,69.0265486725664,62.9962560933809,45.5708329171196,146.108933527639,148.100364697986,128.888888888889,136.363636363636,145.546216187958,147.312513606779,12.88,12.88
SS01,RMT30,5,STIM,30,RMT,POST,FV,2,12.8025366969393,11.8255314362016,10.1666423545263,10.754464323005,15.4518117125031,15.30328860268,0.259615542064169,0.236726774883454,0.12887647062505,0.132020289301673,0.382783999223756,0.384121711745077,0.24131117052602,0.223449354781733,0.332164818645528,0.322634058501484,-19,-17,0.723909726164362,0.716935332019708,0,0,0.923034489454192,0.908954150914773,0,0,0.909336639189533,0.904809634097549,0,0,0.848230738428588,0.855150771368427,0,0,0.886395509558069,0.876279375947156,0,0,0.926280746155245,0.918202936566477,0,0,0.948435073427371,0.948558824371456,0,0,0.923600275493261,0.934296335779654,273.833798615423,265.559995148584,58.8785933258183,58.7296396852905,-21.4727603452915,-19.3002754492688,35.9684174692959,23.5386681804209,37.037037037037,32.1428571428571,24.113475177305,25.3521126760563,45.3642373346619,37.0342147078768,7.33421168203776,3.31491712707183,11.2191685357323,13.9466382037229,147.663551401869,150.442477876106,13.2389492992177,7.5225954895125,28.4110503175339,32.8474941804688,0.805375004326174,4.48455185952909,955.8795886663,633.001036543916,40.8282526359931,44.0917121409734,2.08333333333333,2.12765957446809,16.3934426229508,16.1290322580645,9.22272239364173,12.6440221412154,33.5427186692213,30.2044202795603,88.8699762999408,84.5486422608869,24.9480222511725,31.5217012685529,97.9580489099514,96.6577295317985,2.29885057471264,2.40963855421687,26.865671641791,24.2424242424242,51.6181384118384,48.9983294204568,8.45085207235943,13.5233021975715,68.3544303797468,31.5789473684211,22.0974336842778,25.7267843785239,66.6666666666667,66.6666666666667,148.405090954388,148.375936083835,129.411764705882,59.5744680851064,148.336307897938,148.601521542362,44.5711834465428,47.843137254902,22.4430814323282,25.4987143226335,25.226640854646,25.4175744371822,43.1734317343173,41.8604651162791,31.6006104610831,32.967236236676,11.3663616878641,13.4292118042585,3.21361058601135,1.46520146520147,1.37799847380587,2.32679081671409,3.08219387599034,3.98951006354234,2.05078605126273,1.71127762821722,47.843137254902,45.2781371280725,44.8017324457776,45.2781371280725,57.553268318192,49.9295904110873,78.5714285714286,80.7017543859649,59.6923642038189,54.1728661007588,139.527596241413,141.644898785634,100,94.7368421052632,141.060327433443,142.151723798936,12.59,12.59
SS01,RMT30,5,STIM,30,RMT,POST,FV,3,12.0406719460246,11.8399663645271,13.7263374916867,15.0434145107922,13.0027585796083,12.6777188891845,0.264248962115578,0.263910491098787,0.158122260407045,0.159750991885228,0.381203181424071,0.386120543770359,0.282060817001239,0.2835293182885,0.325516234234801,0.326251961992222,-21,-22.5,0.659151177503646,0.714783587988798,0,0,0.84626198664893,0.817190501345543,-1,-2,0.921336538363591,0.919120682137406,0,0,0.815700975107377,0.846784509337174,0,-0.5,0.909841246076808,0.89673769673177,0,0,0.914648176349682,0.916203859766262,0,0,0.913327050313967,0.89358671471951,0,0,0.930032829169924,0.925076044040469,377.339265467801,380.013121833649,44.9082147533855,41.5868389144674,-19.7634966293402,-22.4918774797402,21.3004072019169,23.5333741826597,38.4615384615385,41.9047619047619,31.8840579710145,31.4349867319861,23.8203616024354,29.1987867599861,5.31133328386052,2.73569023569024,30.0260064262058,22.4037249070767,145.679012345679,137.876614060258,17.1669090082396,8.89098888610435,29.1960615828308,35.9588406338366,2.34751704043333,4.98251265975584,2098.209446155,3680.00104910008,38.2429079735288,41.5616590657549,2.1505376344086,5.83699200720477,31.0344827586207,27.6446686282752,7.89160555570939,11.5292213285793,17.680171003154,18.157878225257,73.8673148598673,68.3251098754259,29.4734104461149,49.5314479502649,86.7733467702472,78.953032936701,4.93827160493827,5.42771568412594,17.1428571428571,20.2898550724638,41.5325897243934,37.1947048887773,29.5541784205037,23.7093076876493,48.8888888888889,30.6898774983881,41.0677916730178,36.1503369610289,66.6666666666667,66.6666666666667,147.305932615891,151.203298506078,40.8163265306122,59.1236102027469,145.834109067905,150.896182075543,55.3329150390296,53.0136258761047,33.8851597752866,32.1243523316062,30.5941903808133,29.9916424086565,50.1831501831502,53.6954514432534,21.7807790529833,26.9932308746813,6.18458189925945,10.0682379455082,2.24089635854342,2.37249793194263,3.14842504234826,2.81819294482601,1.03683791864389,2.34611219443142,2.68710754801068,3.11949794154881,52.0917678812416,55.3329150390296,55.0331898376125,55.529949193528,54.3901811717878,54.0785920892523,146.666666666667,80.2860061287028,62.861920368915,60.0034099546302,140.014661329176,143.046922583154,129.411764705882,121.474358974359,139.322556791614,142.364051169599,11.25,11.25
SS01,RMT30,5,STIM,30,RMT,POST,SSV,1,12.4215764143092,12.4940993010682,10.8088829217759,11.2864677536882,16.1202340837643,15.7713592537019,0.17892813200784,0.190261716798971,0.153514596008259,0.138251466559844,0.246277896576304,0.249360912707533,0.193596114355267,0.195657758709465,0.262834040709698,0.262149259441398,-21,-21.5,0.504150221413513,0.542222969469927,0,0,0.889597340430762,0.884416501172379,-0.5,-0.5,0.92190628328022,0.928370890048843,0,0,0.849762697510714,0.857157408523777,-3,0,0.858178567125717,0.855980708194118,0,0,0.85345720472225,0.844783510566862,0,0,0.902607116138016,0.900560297789588,0,0,0.869550435130277,0.874543429959795,535.762466562823,719.223493626574,62.4673309686941,63.1321830549002,-35.7929085584803,-31.3831395554138,21.7615012817174,22.1528942575908,47.0098538905878,47.4385600553825,23.463687150838,27.1158392434988,26.9955502621461,24.5023951922744,9.76744186046512,2.03876658085222,17.6561649619339,19.6929124982895,125.773342836778,124.663865546219,10.016052438971,15.2363052607493,12.3083738999389,9.29622262207037,15.5177212743567,18.7995563776707,924.342396123759,547.831597995255,39.6574661121748,45.8578000105122,3.82626072646057,5.53113553113553,27.5944097531966,25.2100840336134,5.71304166386125,7.86885926339023,54.4339024633561,54.759008930055,85.4556945362166,89.8738727027735,51.5920248551731,71.0123660754996,89.1855909012852,92.1010328869774,5.86932447397563,5.21575480575346,30.4065040650407,29.6067415730337,65.9651188741346,65.3657422551483,39.4048870290293,31.5769230544762,143.349753694581,143.953375424963,53.8808935179809,42.9818608907562,66.6666666666667,66.6666666666667,146.107742967255,146.984112250729,94.6198830409359,117.714285714285,144.309050829732,145.956736695739,46.5166130760986,52.1180626004926,25,25.8745141588007,26.2656716048179,25.0151862005396,51.8452671970606,49.7441663006881,29.1344428720837,27.0517069300179,10.6574474965007,10.8366650962925,1.85243741765481,1.90469532742864,1.29413936862556,3.47029638243725,2.02964371793087,2.49040214468215,4.09992703519684,3.78111551811308,52.1180626004926,46.1154493951922,48.6045539259591,48.2710050481416,53.9701419634683,53.5151016069032,80.0376647834275,71.8738673432403,62.611875882897,59.7480970136704,152.607482227267,151.398999598578,153.393665158371,146.640316205534,151.338594157692,150.390305826498,16.25,16.25
SS01,RMT30,5,STIM,30,RMT,POST,SSV,2,13.0287051800681,13.042687285791,13.4329063073972,12.6845494729722,14.6810651635315,15.6592974301792,0.252294258324415,0.256707638053778,0.193437338162176,0.196244473110077,0.304495212496225,0.303176308387365,0.207013564668693,0.208582123625644,0.295116961826742,0.294685756088164,-23,-22,0.575198627821358,0.670274930630369,0,0,0.865380883484322,0.870605647307377,-2,-1,0.928378227138659,0.92205945437131,0,0,0.750105569418243,0.766759416196843,-4,0,0.86589274096037,0.868730615007889,0,0,0.850045772117089,0.86547316427876,0,0,0.930949623473254,0.934025978130018,0,0,0.866632097690215,0.872313924824477,22.0712567575583,301.127617453231,40.6141791802239,39.9841980379245,-34.0769298438047,-11.2644894005564,22.8828223478827,20.6296936173302,46.1538461538462,50.9803921568627,30.2158273381295,28.9855072463768,10.5460175663004,12.7261086797365,11.4600521059488,2.2038567493113,5.72624796931504,11.140405923356,134.117647058824,131.707317073171,8.74563246710623,2.85382763356723,11.2361830406738,19.749745334006,11.6639588836811,6.22769572740982,-1272.02641211149,558.001292027375,38.0691343699962,37.1020044316545,1.08108108108108,3.20855614973262,30.5084745762712,27.5229357798165,3.61747972311714,6.72110668142797,39.9359336220917,44.0119546389873,86.3663273678462,87.2834342520491,7.75074315982348,33.0369250784597,88.7994302148734,88.7739826179985,8.80503144654088,5.12820512820513,30.5084745762712,29.5081967213115,57.3870319905322,61.4473590011911,50.7364058653213,51.7891275900525,44.8979591836735,56.25,66.0000064712179,63.9943425565298,0,0,153.217956033596,153.062864351495,138.461538461538,56.5217391304348,150.257166367668,149.807720694667,47.5657475657476,50.8235294117647,28.8560045952367,28.0794112558124,29.1068082448469,25.7560040817875,54.7400611620795,51.9095869056898,17.8102312308532,19.7100192788127,4.55371538812827,4.33853646703179,1.92975685063683,3.20437670965222,1.4181392614873,0.942489143412618,3.82851820026429,0.766719535700824,6.20942477683894,6.14303760231185,50.8235294117647,48.4848484848485,52.7321037189406,50.3325282857245,63.8548999083994,67.6615113299317,162.5,63.1578947368421,64.3488952064153,67.9434423092702,150.057366961341,150.614321382208,163.636363636364,127.272727272727,147.894983658471,148.661700185705,14.62,14.62
SS01,RMT30,5,STIM,30,RMT,POST,SSV,3,13.0637348932337,12.8216698304268,10.5998484649594,11.098853104765,15.2216415057584,14.3331158293594,0.165948247121788,0.147564828834436,0.134585305930044,0.129777786922507,0.288677332377169,0.286657824826038,0.21214231843655,0.210102736998409,0.258255743082972,0.255210030935316,-18,-19.5,0.578692079458608,0.691727327212645,0,0,0.915981582458278,0.900887763113278,0,0,0.953811735513367,0.94804101461627,0,0,0.868041621239328,0.889800611615092,-5,-8,0.849229035232681,0.848415565254268,0,0,0.915766300146974,0.925718133212488,0,0,0.912264890293875,0.915532303568359,0,0,0.922806987666837,0.912891597361696,180.968340654947,340.669400230822,71.5993580639478,67.986583003849,-33.2709234096189,-13.8463232986898,39.1205403786717,34.8390136523364,40.3703703703704,39.2660550458716,22.7131489200455,24.7507517012186,36.8425159278408,38.1945023565135,17.4553101997897,3.72145373507266,18.9972607648008,21.3701148660334,153.797208538588,149.842555105713,12.8538038070851,12.4644340924936,17.0015567498076,17.8093617401649,13.4790322360315,13.5562937508542,541.139752005407,580.691424308806,51.4328191684835,47.8276368736523,2.66810786210035,2.66810786210035,19.4017094017094,22.396694214876,2.11877273012737,2.08375074831921,51.9020552817029,44.8053410456376,81.4646088818309,76.3282625181035,58.5949438933968,52.9048528256418,82.787713752029,78.8854866946992,1.8259372895308,4.25720620842572,15.7264957264957,17.0434782608695,61.9650132310192,53.1629150989593,26.7396545625365,20.9195229871263,160.10989010989,158.899297423888,43.500722039059,37.9196497857695,33.3333333333333,33.3333333333333,151.013263966445,151.684267870183,149.604916593503,77.4270399047051,149.654808552724,150.68637982155,51.8353726362625,40.1712504807882,17.6470588235294,21.5211267605634,18.8267196389518,21.4550984710225,45.5811757675357,41.6618357487923,30.6091309953552,32.7405219104414,10.7899494185208,11.3141685435609,3.82852481972585,2.90346589731982,3.02580609744022,1.98507180812516,4.01682340226622,2.14980732454911,3.1122031122031,1.21392190830781,40.1712504807882,45.9657055258143,35.8884447277134,45.8478665978223,52.1268793502418,42.8885840659819,47.2207925887802,59.8188194038574,55.9695060983795,53.5148767494386,148.182017034196,144.620686551487,34.9650349650349,27.6923076923077,144.959736084644,141.315444108018,15.19,15.19
SS01,RMT50,4,STIM,50,RMT,POST,FV,1,12.5378181536082,11.6010093370633,13.5188527575568,14.7135724346336,16.0317191105089,15.6886265693625,0.201653990393728,0.202885271438136,0.268773409739739,0.260170409587509,0.213308554405825,0.213134040227097,0.339575457305831,0.308511095262305,0.214540056712631,0.213353834202162,-21,-21,0.519412232010716,0.542189039229871,0,0,0.819720923837401,0.791977633207645,0,0,0.927419617148807,0.928040019775159,0,0,0.835671270696543,0.837905178555926,-4,0,0.827423118200702,0.827777865709707,0,0,0.91829311927354,0.909657851656332,0,0,0.91078078052194,0.9201658306879,0,0,0.870038484350284,0.890404212188069,267.192698912423,321.2064875754,74.7754597349788,79.6098465080977,-26.5308572710499,-14.3923696652452,48.6044981307966,52.3573889469446,38.9189189189189,38.5321100917431,26.9731800766284,29.3706293706294,54.6109474010346,60.2212644921566,3.11958405545928,2.7681660899654,23.2566037188658,26.0887693039965,149.684873949579,148.275862068966,12.4433370846429,11.5575209530069,33.8658821513968,35.9291241395817,13.4517636194485,10.0341869489109,-1756.46923288624,1789.06312442227,61.8207368165163,59.3632881201771,15.6435298221137,12.9032258064516,25.5114483132367,26.2295081967213,2.49984625785926,5.41651395892315,46.1164391645469,46.7238464779737,88.8484051146919,87.3521812797766,46.3022072685116,41.2969432452788,96.2449606268592,97.0696358052025,7.61321075927818,8.48484848484849,28.6111111111111,22.2222222222222,57.8664916369854,61.0577431704189,59.0147579608764,59.3468937650405,135.821535821536,138.888888888889,73.5744719003175,71.7710077547537,66.6666666666667,66.6666666666667,185.991674567121,185.904506998544,132.08430913349,121.311475409836,185.910052514263,185.802326242009,62.5322997416021,59.846547314578,33.112582781457,36.8519334928832,35.815023811783,35.5882352941178,51.4951329514581,55.1984877126654,39.2094813121509,43.1760095416596,15.7599240874733,19.8928873437941,2.99719834244139,2.21336874723328,2.98337808746566,5.41042199523813,4.79039681765462,0.953910546551803,2.08025746089149,3.46432712107839,59.173273657289,62.5322997416021,63.6502226042115,60.5979613762022,87.680628297745,83.4498621782673,54.4444444444444,78.4810126582278,93.8395782773776,89.9631011448734,153.848074731651,154.263150894403,89.2895015906681,95.6521739130435,151.139285948176,152.368694492011,12.62,12.62
SS01,RMT50,4,STIM,50,RMT,POST,FV,2,12.8648107548268,12.5022492056496,13.1004048574198,13.6093747727737,15.0166609632888,15.3477690344971,0.215039569982673,0.215883792828993,0.252098966250576,0.238622475969185,0.237821340723898,0.238870511470463,0.294499529459243,0.289823745454655,0.203311862971951,0.203941636906176,-20,-20,0.400802707330664,0.40628237273731,0,0,0.855878133291648,0.85079724449614,0,0,0.906139697395442,0.915619122830536,0,0,0.793268974002809,0.81179358696681,0,0,0.839328182320693,0.855983857713414,0,0,0.935902608419761,0.937152624164826,0,0,0.931692889175729,0.928719675357713,0,0,0.919048823842077,0.926150024052802,939.389900325034,929.873839099059,87.343345405861,82.152559914944,-24.5633516344979,-19.7132035954806,36.3959259108021,30.3499961847529,37.8378378378378,39.2857142857143,28.5742035742036,26.9503546099291,33.4313451460022,36.8245362758507,5.65723793677205,3.035413153457,28.1773039064857,28.7718983602774,149.140211640211,146.666666666667,16.8644389585756,21.1458901126118,33.9981084757349,34.9187612257833,11.0344841362124,11.7299140657669,551.133045121922,785.928577119055,65.8046098747154,66.9012352871151,4.69593673302427,4.12371134020619,20.93837535014,19.672131147541,7.32948005628151,8.94668024812602,40.2794980332305,43.3458682647221,82.9412492642471,86.2572351816627,31.1675389857183,24.5443488839403,95.21307058722,98.636708672452,5.10489056309671,3.63636363636364,31.5694255992764,32.8358208955224,56.0004691137191,59.8990714477406,56.455278389505,55.8477701899688,106.58016682113,141.176470588235,71.9727762253876,69.9085427692067,66.6666666666667,66.6666666666667,186.636739543163,186.677232953041,152.467385138968,148.837209302326,186.632461755314,186.729758990525,51.7520215633423,51.5519568151147,27.7904328018223,28.57411548348,28.9439873925564,29.0556900726393,45.667381790097,46.3527239150508,35.8984587374535,41.5236658495191,14.1750549164625,18.1100118873356,3.22473003577936,0.0922934933087321,2.28827976788124,3.51359984274799,0.936861626350015,4.04415977996511,2.10922787193974,3.76517466695932,51.8856389819699,51.7520215633423,51.8618551634158,51.7520215633424,84.4277179768576,80.812045575267,95.151515151515,86.5248226950355,89.0417979457248,86.6686037562527,149.593308445908,148.384125217723,130.30303030303,120,148.656229062442,148.43810842487,12.31,12.31
SS01,RMT50,4,STIM,50,RMT,POST,FV,3,11.8401798708303,12.2913924371121,14.881539683479,15.3696630165781,14.5437779671585,14.5890289377083,0.2310750289118,0.222072671821937,0.294850164735163,0.304085910995803,0.232670875567031,0.233003337157072,0.250648053795497,0.282045197162527,0.212600085426203,0.224963698971527,-21,-23,0.604803104475273,0.622322997028318,0,0,0.822445948790986,0.806979969366882,0,-1,0.908277604897593,0.900589865572634,0,0,0.785338554612188,0.766933092895835,0,0,0.876583569088291,0.894125502134303,0,0,0.942171746074047,0.938471484277098,0,0,0.884876450179405,0.896591385009262,0,0,0.90103725304547,0.900752684338529,-400.472659354036,-347.483931900888,48.5866494124062,45.5782540780386,-8.3935545380596,-19.495773495781,20.0039236383089,21.8701522460763,39.2523364485981,43.6363636363636,31.1111111111111,31.8840579710145,13.3125799194695,15.9820249142382,5.67612687813022,2.51513090192385,25.3629480033258,20.8727158422915,149.367088607595,133.333333333333,13.9279431669416,13.2131262547126,28.8462791287182,32.1808012499418,10.9760062882456,8.75355503516876,-1952.33948511669,-1351.26117833231,52.3721504665078,49.6195141884012,3.20855614973262,3.20855614973262,24.7933884297521,27.1186440677966,4.71952096064227,8.52380640467419,30.7129272503377,28.3012652658726,78.4229770001209,75.2737951273465,15.3574096547015,18.6944203160823,86.7254124516527,86.0918495382275,7.2289156626506,6.06060606060606,17.6470588235294,22.8571428571429,46.4308702690499,45.1377885982884,67.6180512484942,67.7113509707491,158.620689655172,159.322033898305,77.6141841957852,79.7144579362336,66.6666666666667,66.6666666666667,186.927033157721,187.227816122891,168.831168831169,170.37037037037,187.295355580969,187.397880326451,58.0645161290322,56.2131213121312,33.4448409158489,33.262863758993,33.8138793275979,32.5885558583106,57.7391304347826,57.7777777777778,34.7006358644477,37.4269005847953,17.7027963947308,17.8941524796447,3.23809523809524,2.19780219780219,1.65771361423536,1.57719714964371,3.55953583748334,3.77467223742975,3.10550959598764,3.87809245987007,59.9009900990099,58.0645161290322,56.0495985142294,59.1883866710656,69.4052132438945,75.1126390140814,101.234567901235,101.234567901235,72.4727016128684,81.4319967369427,150.136190526517,152.410962247659,127.272727272727,122.58064516129,147.527436768627,149.52877371536,12.4,12.4
SS01,RMT50,4,STIM,50,RMT,POST,SSV,1,12.7737351067007,13.241167819686,10.8732810675701,12.174375544767,17.9780496793521,17.7593933243001,0.189825857437355,0.184237969662306,0.200796171953224,0.192269748751616,0.179257973353884,0.181376190601496,0.245339613791062,0.243290379167904,0.155076274068713,0.15523665976735,-18,-19,0.435621652679751,0.467724360236087,0,0,0.904921245948386,0.873709822667126,0,0,0.945192121282831,0.953087928577754,0,-0.5,0.740318737327754,0.780398013511165,0,0,0.858809304776696,0.877352050169203,0,0,0.956574871856607,0.955499098409808,0,0,0.916814168208653,0.911169279281017,0,0,0.92998514299418,0.923069153291813,-2324.49107388717,-1272.99141561935,78.9285943281429,75.6024534196804,-16.7292297343698,-9.65685831761326,43.4183057865095,41.1725131269529,40.6665230194642,41.6980585337583,171.299462628236,99.4420240006117,11.6986417616925,18.1085423689693,11.3122171945701,0.198228516812588,16.3627757334258,17.463218560799,125.20325203252,134.804539722572,11.5751782043334,10.2356710215458,6.12420348362141,9.00257764293375,26.5930444912967,26.8303783940976,321.820386333678,316.398608133287,61.2220261672554,57.6666670252928,9.37701396348012,10.5080330004342,20.6839816664708,21.8803418803419,13.1960278718444,12.2979645867672,70.0442801265007,69.256524339896,98.3567292661357,97.6780474340138,104.735975388251,107.720920079828,99.543424596161,96.9592257347469,4.59770114942529,4.59770114942529,34.3673469387755,29.7496318114875,80.4030037213911,79.1047951531463,65.3935089328322,61.0562249998765,65.3679653679654,86.4864864864866,77.449768587516,73.5316723598283,66.6666666666667,66.6666666666667,184.793067558913,185.046573452298,58.958918774254,83.9263803680982,184.822801780085,185.051973392068,46.9135802469136,44.4579151792731,24.9598286020354,19.3477059148701,23.0820442845808,22.5399056643643,45.232749588385,47.7869153721157,29.4839091155652,29.9157497891399,12.3373885723895,16.8607736183248,3.75121149186571,3.40475938265565,4.33875493933166,5.05744658669072,3.17146372703536,1.61633076241168,6.71282837359269,2.58563145603852,44.4579151792731,44.4245320589406,49.5021634136038,47.5322802340845,90.6232703317437,90.9868876526341,114.198473282443,45.0248756218906,96.115788588685,95.9318097142501,154.559200449481,156.394376943651,135.949098621421,139.152759948652,156.336840159958,157.920067097442,16.78,16.78
SS01,RMT50,4,STIM,50,RMT,POST,SSV,2,14.9905392006239,13.290206189156,12.4896188678316,11.4984715140897,16.6518498760116,16.6287391126991,0.171611893379068,0.171986808809095,0.21761989328419,0.216202722776464,0.192362186838105,0.186491629158511,0.193199499800845,0.193296181841395,0.164775519138967,0.164471379869229,-21,-22,0.33179000955405,0.379558048048585,0,0,0.838782919424667,0.851660548765061,-1,0,0.931600946563862,0.932419394863685,0,0,0.785050561476558,0.752639404344148,-2.5,-2,0.857666029788817,0.873882886059161,0,0,0.946889905664389,0.955836027776996,0,0,0.923953242396906,0.917468447670161,0,0,0.927027279684913,0.921468790208906,-580.566775510918,-471.484608153031,83.7269904056922,87.5549078962651,-44.4282663068629,-29.8548520358938,15.1894718319327,20.5544192510889,47.2727272727273,44.1269841269841,25.0804449756366,24.6680741262022,16.6260248627236,12.1898069738134,12.981298129813,6.81619460245414,8.16397003158079,6.504122054707,132.024252445914,141.921812203143,5.5629029728396,3.07166445891087,14.7446488076504,14.031858098549,17.6672432578195,20.6745648192089,-107.439475915806,17.8072433071925,52.2444060509206,55.6194860386889,13.1722784236751,15.2037108163205,24.0633608815427,24.0633608815427,7.16897803496697,8.33045690509965,65.9872750699197,66.9231300581342,96.9050312600898,93.6650813186728,92.3317783699242,95.0047220177998,100.109336323641,92.5200093741443,3.00971583022866,3.63689798317475,29.249473930325,22.4485125858123,78.3238975172083,76.7491564153618,55.3086568777858,57.2558301936234,162.463343108504,77.1717171717171,70.5618069382957,72.1615558947445,66.6666666666667,66.6666666666667,184.798683078622,184.266557286208,145.185185185185,145.185185185185,185.182359087896,184.685578388991,48.7989886219975,47.8562844344555,21.0970464135021,22.5863077823288,22.2684421153201,21.9379726829638,58.1170747740345,57.1428571428572,33.3682096470621,33.9939789479005,12.6115190932477,12.4660890592133,1.66464646464645,10.5292339847032,4.19150765420977,3.77901868648806,2.11700065919156,5.01018682094542,4.36201160417235,4.84677132164797,47.8562844344555,52.3706827863889,46.3384929239185,47.2770026033605,69.3331166608994,71.1105529650994,125.854700854701,144.444444444445,74.8900824749454,75.5764579668157,157.589223458212,157.514108845569,153.393665158371,158.608695652174,157.171069529358,158.200234198426,15.66,15.66
SS01,RMT50,4,STIM,50,RMT,POST,SSV,3,11.9729664655787,11.6346434841438,11.4366335878944,11.5235942008928,18.2086798327055,17.2047818269714,0.176144726892176,0.175302625252847,0.168278029118363,0.162816286658203,0.202861685749,0.204530267088018,0.237265600132819,0.224733233076178,0.158938911989726,0.156044851600823,-21,-20,0.453141605725992,0.482544781551326,0,0,0.88493319574746,0.878693602918237,0,0,0.905400400720818,0.911556358178287,0,0,0.799166050923343,0.803204455449516,0,0,0.828365812326123,0.832845568323339,0,0,0.932512766977908,0.934976603813777,0,0,0.929600466197653,0.932031600424696,0,0,0.912617323180289,0.892355435229471,517.740950084104,340.667331617229,79.8340254349108,76.4389246735271,-25.0727293187228,-23.0691366789091,35.6155032413638,34.8741218325055,45.7119871279163,42.2018348623853,20.5780520849014,24,28.4953435405645,29.2650355113965,13.7767220902613,6.72947510094213,19.4702078517689,17.7992680486203,147.870811587625,150,16.2434235796522,12.1195377630789,6.66877812120612,8.33507196645898,28.8654079759881,27.7868819574734,55.7840561472365,1023.51104649924,60.573470214615,64.5862013894315,3.10352233676976,4.12371134020619,21.7967213114754,20.8,16.5079494490602,15.891915670173,63.5188949002173,58.7559645016623,98.1234484989901,94.1392805047251,71.6866155777753,69.3928820567233,103.748550403106,100.167508369248,3.55738227686638,3.50877192982456,34.5341614906832,27.3684210526316,74.3443090059922,70.2292908367043,24.8060590368368,19.7033400689094,156.470588235294,152.238805970149,47.6718205171455,46.9637380758348,33.3333333333333,66.6666666666667,185.902714571237,186.593137078823,170.908022333235,171.084337349398,185.97227640039,187.067057143475,47.5972540045767,62.621359223301,35.0253807106599,30.2995937440568,29.7087865831536,24.184903577343,51.1912798954616,49.4658997534922,33.7002366708909,34.081002427277,14.1513563333213,15.3460318776297,4.3244737006597,2.67531414673692,1.60859304601271,2.89802758798504,3.77776321349161,4.19717878692672,5.10652803817965,1.28667929518567,54.4053678333595,47.5972540045767,56.5442686434808,51.2299889746418,85.3257880335402,84.3637681752947,127.757575757576,76.5957446808511,88.0485004333574,88.8458938032783,149.570822388325,150.095121353786,105.309346204476,90.6474820143885,148.815945982519,150.646933846036,15.84,15.84
SS01,SHAM1,1,NOSTIM,0,SHAM,POST,FV,1,12.1249372986542,12.2656586856318,8.44471335288557,8.78858363424007,16.9352177482353,17.3438513222528,0.244130770069088,0.24865991253588,0.137459219765451,0.143168148600252,0.165928056400324,0.169156434837544,0.222524915722273,0.201157722800416,0.203725859876012,0.207683857246346,-19,-21,0.633073945352724,0.648048032542273,0,0,0.891084481311617,0.888358562338821,0,0,0.928983333443215,0.930083695643755,0,0,0.743047773795299,0.745246007197524,0,0,0.873288016233307,0.85779956652732,22,20.5,0.811518381904652,0.814830767006596,0,0,0.934427626444285,0.93016316307892,0,0,0.838922336950899,0.840238940221484,145.883184787121,146.815913399732,55.7137887985815,54.6482181599323,-46.2102352181988,-45.5555774395061,25.953718664017,27.5891328485468,45.045045045045,47.5301689460982,21.978021978022,21.978021978022,34.4258476938844,33.2078270246409,7.3555166374781,1.60965794768612,29.4576227182954,27.1616175981773,113.04347826087,105.800865800866,15.9040415571891,12.0174933517972,7.80717026984707,10.3481303064769,19.1790325029109,23.1848491273727,-558.16420481318,-513.474609218777,48.6413410782786,49.1991040645281,4.3010752688172,3.24362233716139,26.6666666666667,30.5084745762712,14.1668502936445,16.6626892198701,51.4954491962034,51.8526129143959,99.526138849451,97.0702368594702,16.3088416278866,31.6072205952115,124.654407101447,117.933866910381,2.35294117647059,6.33844927247359,50.7462686567164,49.3277310924369,62.0073063935029,62.4804651817661,22.598475301405,20.4572371661897,175,169.69696969697,36.2138108793594,33.755167579339,66.6666666666667,66.6666666666667,61.5044274707397,60.737162465788,62.6262626262626,59.546925566343,60.0849892937427,58.5392525451496,36.1556064073227,39.1089108910891,13.2856265827642,16.980172852059,16.5231942738895,17.4927465576945,48.5795454545455,44.4483650905669,31.097313294261,35.5625221353277,11.8065352280678,11.3726322132601,4.23048869438365,2.167875499963,1.3262280347905,2.03206737290868,2.89970843152136,2.11551586630023,2.67425527645524,2.24028113331869,39.1089108910891,38.5906237164819,36.4854619593059,40.2511424020718,80.1189330799447,78.3346045985209,66.6666666666667,114.22150882825,82.7973148647278,82.6022488753079,74.0353749322044,73.2179705830468,147.826086956522,153.571428571428,79.2028109604061,80.1742568535505,20.19,20.19
SS01,SHAM1,1,NOSTIM,0,SHAM,POST,FV,2,11.8494020148736,13.5849342250349,10.2806123036137,10.2376700734471,17.6718115743319,17.7948343238221,0.20079089256093,0.217138586107905,0.149902208841731,0.171752206455224,0.165980620947641,0.168856350362773,0.185014539202739,0.196604407625832,0.212270854652926,0.219458661642102,-25,-25,0.559531632640983,0.486764293857346,0,0,0.825854139784574,0.830224537351635,0,0,0.931071114480609,0.932807488614886,-1,0,0.831308427999742,0.83079946212087,-5,-2.5,0.849797663438809,0.81119237829796,0,0,0.83315564554843,0.851791962284927,0,0,0.910252919104807,0.895321561100213,0,0,0.85030064703213,0.857576553167146,178.470985356354,201.588241267106,90.1257494666299,83.944525104759,-105.940773864456,-95.4329887713641,28.9136595090426,40.9842677745887,49.5726495726496,49.7787948131197,146.666666666667,65.3381642512076,85.110469986741,79.8521057250852,16.414686825054,3.8369304556355,38.54754147424,44.909980542383,109.52380952381,114.858424446314,24.9756254554885,32.6948480077603,28.0065585748766,24.5034649808709,4.43679923295464,6.66810276181366,822.84527866984,1442.53382375308,36.435951184784,37.1024849336142,7.32984293193717,6.85641082767071,34.4827586206897,34.313725490196,9.13121737920846,4.13629999637438,69.6606149312509,68.5452201079927,100.485242968226,100.543655250257,67.4088627419395,70.8884158589346,109.96542889619,107.770770419847,7.2289156626506,7.15019664812387,40.9090909090909,23.6111111111111,76.0017299512322,76.8785119474275,29.0718199608581,24.5854746657027,158.620689655172,161.895161290323,37.9970063957667,43.7270221649781,66.6666666666667,66.6666666666667,69.875578655055,69.0280395133103,56.1797752808989,59.1221682847897,69.1469237965514,67.7135308969881,62.8571428571428,60.475651189128,29.6233834784904,28.0269058295964,29.6284670616973,24.8434761623932,56.0357675111773,57.6245831750453,44.569311903566,40.842040668984,13.9803999566051,13.0389311007326,2.47469066366705,1.28971764697292,2.83178707110815,4.68910904635965,4.53827683921348,5.0329555102137,1.71966312964565,4.76003514872771,60.475651189128,54.3837165473049,60.4079158332704,53.5715041607203,61.7954238327412,72.9742947354786,59.2,123.717948717949,65.2412482361689,76.2359956358269,71.5244521139167,75.7621991567864,134.69387755102,144.761904761905,75.3153494904962,80.218736010532,20.03,20.03
SS01,SHAM1,1,NOSTIM,0,SHAM,POST,FV,3,13.025131131201,12.5963662455841,9.71663464825458,9.67682375676063,18.1349253565108,18.1408238289095,0.24848343507644,0.253625529532127,0.17532194811793,0.166295695808036,0.19416566348303,0.182307854372219,0.210651925220961,0.205755252658002,0.240801443312561,0.232119409014784,-19,-21,0.431505100677822,0.435906368628136,0,0,0.887699075467837,0.881542492113738,0,0,0.932818869101433,0.918290993025799,0,0,0.777049112060479,0.800782124256646,-2.5,0,0.88055740280725,0.863874802558846,0,0,0.859481181375823,0.875181034730452,0,0,0.899329201257817,0.897345565486243,0,0,0.863574150823008,0.8809963469694,308.552432117539,300.196223518653,74.9654692625496,77.9212054691043,-59.0312633407945,-48.9769654681405,27.5722832247203,31.3398728246626,43.5573122529644,43.4782608695652,107.873629071861,190.243902439024,45.6533459368772,45.1915039194572,5.26539124204637,3.28233095995556,31.8236493619886,26.4405496084927,114.167099117799,104.347826086957,13.8917143077664,15.6758711529595,17.5634726050775,16.9384176772522,9.10005080126665,6.5516745617746,541.155422202744,592.037615238238,42.2053655461021,38.1053483506675,3.10352233676976,0,33.2077658649667,32.7868852459016,1.8007986453013,1.36764869990546,56.5290473993976,56.6809093901936,98.9401851658722,98.2444108718747,40.5769001676803,45.4901072107067,108.530329695058,112.480186851531,4.57157784743992,3.38983050847458,30.693493150685,28.5714285714286,70.6172487651714,68.5129128706009,25.4181971835426,25.8392355926591,27.2176197211558,30.188679245283,40.2319983999159,41.0029404186244,66.6666666666667,66.6666666666667,68.3699039290854,69.6431303660261,80.4497827753642,72.5274725274725,66.3744252016197,65.1575666256267,44.0730747744642,44.1181151188889,12.6376811594203,19.777053926891,18.3946484150086,21.7214110280425,48.5341929029927,47,38.8192229539915,38.7634878973462,14.6030021590344,13.315534790589,4.2367109642304,1.42677297524128,2.60037844630962,2.16154098719491,5.87646315329544,3.47678609285561,3.2685575895437,2.1943362023165,44.1181151188889,48.2593037214886,37.9973677728496,47.041288257944,72.9307938060487,66.9792597665459,81.9875776397515,117.808219178082,72.6898829122825,68.4556759001634,78.3330153179794,76.4447176196345,88.1808838643371,125,83.4087838394674,82.4703289281756,18.16,18.16
SS01,SHAM1,1,NOSTIM,0,SHAM,POST,SSV,1,10.7186270125192,10.593846523916,8.67778272673046,8.33978074122505,16.1630960207777,16.3360138936048,0.187282334787742,0.181360705706845,0.13033366612159,0.135087406813597,0.182415211046926,0.176577568660669,0.227688118968549,0.233434978506671,0.186220479072129,0.181134644002402,-18.5,-18,0.712469355529764,0.67351450011016,0,0,0.898074839437229,0.904118163170965,0,0,0.943141634401305,0.931699287717275,0,0,0.774839667439456,0.770444784286232,0,0,0.860816556051051,0.85605679582861,0,0,0.928109975507526,0.938090956593258,0,0,0.90593064039174,0.89215377358036,0,0,0.904345325806736,0.899418159547037,136.715241274407,140.158605886957,70.5066644906678,71.5856146177277,-45.209022792943,-29.1579515928809,35.4220326946621,39.6613057699326,48.6644475115693,49.3243243243244,96.6489389167139,24.4721570564268,58.2484978704982,57.7324084110007,5.00745317530694,2.62725779967159,13.1457935340353,17.5551282950371,167.948717948718,156.666666666667,8.03685943909414,12.1647815242715,5.8257004660666,4.62363402430157,21.8054230303323,25.2851098149659,-1691.57875898094,1105.31337074222,52.3345755425739,54.0764333110379,1.1111454057224,2.68545140885566,29.5399515738499,29.5299145299145,14.3491543504462,12.3590917768444,49.4850882897049,49.4024653505814,85.1825623405816,86.5646063498831,44.0905048280313,42.5104694200277,97.7684648787095,100.825337671978,7.5046904315197,6.72602124794254,42.7719821162445,38.3129680725266,58.6147469774924,60.3506241607243,13.198461645621,10.9059666337419,151.794871794871,151.638995317156,25.6709193228695,19.9059386924668,33.3333333333333,33.3333333333333,81.0574566508085,81.6321995564715,38.8341543513957,61.268472906404,80.9824788402319,81.6742173735151,42.6744186046512,53.5077288941736,17.8137651821862,20.8429828624363,20.7214842647885,19.9082344897133,51.7118506493507,50.8015419693017,32.275747116293,34.7684194285133,7.84481931661194,8.94717358940112,5.52295135034477,3.93952199246765,3.42187231338406,5.44274464924817,5.12723447591524,1.48969872561427,4.16918604512776,4.73430567055177,47.0912590112855,42.6744186046512,46.1679778227977,44.7436459491392,85.632536617402,87.4860880500608,23.8284103955746,66.5322580645162,87.955091764672,88.5319862764794,67.1304242820195,67.476381396834,137.386018237082,142.857142857143,71.6646512446369,71.8303866289273,23.94,23.94
SS01,SHAM1,1,NOSTIM,0,SHAM,POST,SSV,2,11.1949779026914,11.3054459022058,9.30924860628468,9.55346943248716,18.2026029255277,17.6389110400254,0.178013478355076,0.184438984490963,0.14000136799429,0.151372276304308,0.145750024016773,0.1461731735086,0.162124517304647,0.16389820769037,0.187548152325133,0.187900289086986,-19.5,-19,0.497469650533916,0.541245195849739,0,0,0.862476961627161,0.847948939272483,0,0,0.936416023479461,0.942638081189432,0,0,0.822238761048284,0.808691443820279,0,0,0.884593480729095,0.876516532712281,0,0,0.888745148657545,0.888949982842748,0,0,0.933737963412971,0.919469559532864,0,0,0.86653254518345,0.860463356268719,221.60511546959,204.39597811015,72.9396079404646,73.3729913218797,-50.0526487979085,-58.5447880859272,29.2439182311143,27.1973075773454,46.3075984131828,46.9565217391304,20.997038800867,21.2290502793296,49.6579436951688,50.8802576620468,9.55951265229617,1.64383561643836,30.39557297829,34.7221675280262,120.648038829857,118.032786885246,18.5779394292325,20.7857731269662,4.0367876033054,10.8778944306299,25.3600509013157,25.720187919583,-367.516204390333,-389.967060067624,50.7356306348665,53.4707762499375,2.12765957446809,1.06951871657754,27.8562259306804,29.5081967213115,21.3371123102058,19.1925584032104,66.573294153205,63.0392824719278,94.1557648964634,91.3803048221901,71.0050080439302,70.1240191411846,100.768006359089,99.4165770660718,5.95765807298131,6.13496932515337,37.3626373626374,17.0212765957447,73.5571671413051,70.233753975522,11.664919820589,22.423679834457,174.675972083748,173.770491803279,25.7552987277222,37.3571885749706,66.6666666666667,66.6666666666667,64.1779979273641,64.790583873829,108.930575597242,91.7647058823529,62.9660527776243,62.1754018840347,49.5238095238095,43.5643564356436,22.0640569395018,21.0526315789474,20.9514171509028,21.7801047120418,51.1157894736842,52.6315789473684,39.6943561207711,38.242818932434,10.1768427412268,13.1514623996948,2.08900651823277,0.553250345781467,3.37384697548587,2.01434258326021,2.51607768857913,2.01489992663697,2.87759001835963,2.27107997100749,44.8768664395308,49.5238095238095,47.539174949204,49.5238095238094,64.7501728362629,68.7194585315825,60.8739837398374,50.5494505494505,65.6750571724263,71.287957031369,70.0698110245125,65.4502962392808,147.246376811595,170.642201834862,75.2716388301631,71.9269990647549,21.84,21.84
SS01,SHAM1,1,NOSTIM,0,SHAM,POST,SSV,3,11.4105467060141,12.0897943620308,9.86368993290136,10.2208366863041,17.2425259535099,17.2508683278381,0.223455170742661,0.211129314685584,0.140446481310039,0.148560149897232,0.145808587748852,0.14284202604724,0.178422758461436,0.174142845789833,0.18668424257628,0.184698962149427,-20.5,-23,0.600737942095958,0.587029997356596,0,0,0.825427487446611,0.813404712441063,0,0,0.939960054583504,0.927895412816368,0.5,0,0.765542873005427,0.767968137321797,-1.5,0,0.838067943704966,0.871808822888523,0,0,0.811775694414244,0.813065180702975,0,0,0.887022773019297,0.904832471223853,0,0,0.863835736911549,0.876725922367567,181.818824725902,182.87674828035,76.0389933368477,75.8220127184574,-55.8204294591802,-56.7685880814436,33.2246385829253,35.3304500678992,56.5105424110736,55.3968887116075,19.9337748344371,20.3825136612022,53.4552811051854,50.2969030862066,12.9182879377432,2.0817489399943,24.5407274199612,21.4754434851537,90.9739102252473,70.9211986681465,11.382845767806,7.36547734871654,15.1672481207505,10.6265764059181,18.471541674287,17.3713760442776,-492.552799237453,-528.828249351255,51.0526490928489,46.1592912651659,3.74460742018981,2.13909860443834,35.1900972590628,36.9142351900972,6.9700596732195,10.7281279115355,60.0742093893997,58.8941036854752,96.5654215474121,97.8312560722512,60.9840867706976,68.4503013129849,99.5206640294237,101.193012954673,9.004329004329,8.43373493975903,27.9569892473118,31.3706086095992,68.9596592171144,68.1174931196018,23.2499732220161,24.0595746695573,102.07336523126,123,39.161035566155,35.7012674316424,66.6666666666667,66.6666666666667,60.9196242677749,59.2757224910895,84.988884988885,77.0345327215648,58.2321490428078,57.2113652458618,49.2271105826397,44.7675651769718,21.2389380530973,20.3721841332027,19.7110081122357,22.1879565783492,55.8732541043862,54.7115006697628,32.2668387181789,40.1291975314183,12.6893055921839,14.1292849623197,3.45294151853418,4.07853077622077,3.2266710928739,4.60368248677823,2.72181836022028,5.54984471761808,7.62375024075921,3.36776869502699,44.7675651769718,49.064506975068,47.3775818676618,50.0956291518984,68.3978752870851,69.2165358315554,62.3944476576056,59.8958333333333,71.076455262067,70.9967699309459,74.9863761856317,77.7497310833778,131.174838112858,139.047619047619,80.2478316494146,83.8885860261026,21.44,21.44
SS01,SHAM2,6,NOSTIM,0,SHAM,POST,FV,1,11.781869538091,11.7496200027419,11.5841021144205,11.838407314411,16.1765240477044,15.87500978672,0.173514205256665,0.166603408144286,0.0954256180707597,0.0892754653105172,0.0447210288017372,0.0474960679101506,0.0390335057009327,0.0396130178403195,0.0256367684523194,0.0248752563879577,-16,-16.5,0.765181386201115,0.790404695796111,0,0,0.844282632807075,0.837056341289889,0,0,0.953696748243536,0.957753312736717,0,31,0.550699112064283,0.579518175860332,0,0,0.850106703233183,0.858409683673327,0,0,0.928067893395728,0.925230822150759,0,0,0.930604675729954,0.9359467281138,0,0,0.939419440463417,0.935755699107611,-173.737645941424,-139.493049016081,11.8965776818309,11.1994903246112,-28.081260689831,-21.2969105048457,17.2422827228406,12.1099779269086,25.2100840336134,25.2737161828071,23.6842105263158,23.1003834088532,3.36472618640221,9.91989907388312,10.0982335976928,5.41585188742895,62.3420113151681,64.1402969379356,155.963302752294,151.785714285715,22.8165336972141,18.1525091500852,25.0219488675398,23.6706005442323,10.2584432631132,9.54850340928402,-126.432658232061,-137.27714493235,35.6030898914371,34.2337280951895,192.079207920792,192.156108814765,21.2121212121212,21.2248177696149,8.70567417319922,6.57162666219136,45.445157824417,43.9542165167232,77.6179238611434,77.5384221061369,11.9759826481361,10.5793526551555,91.6809426937715,92.8957780188465,3.35195530726257,1.6453491863328,22.7272727272727,21.7084639498432,56.7310018650251,54.6382823036399,19.3622458758546,17.2133833414001,35.2941176470588,23.6111111111111,44.7811648081084,39.6989182902622,66.6666666666667,66.6666666666667,4.28531457001318,7.83657811978901,161.44578313253,167.410653156237,4.36348600609394,7.2093808062505,45.5462876983326,50.9158621248001,29.1175337186898,30.4,25.4533967185638,27.5728118362699,54.5454545454545,50.7478632478633,30.9373113400456,35.4981158841615,14.2275056364009,16.4247657883177,3.11355311355312,3.77623688155923,0.893089190785605,1.98247206045352,0.360123734821698,3.135611145604,3.45149015672326,2.387455010845,49.6124031007752,45.5462876983326,44.5130241491679,48.7800523206881,13.574263721695,12.7297012758183,142.222222222222,157.345433919456,18.1153361102176,16.6388714900829,38.1906029247787,33.3676411300537,35.2941176470588,42.6470588235294,37.9262378449232,35.5150556102172,10.5,10.5
SS01,SHAM2,6,NOSTIM,0,SHAM,POST,FV,2,11.831976837113,11.7966228677451,11.6373452160134,11.3264281381034,14.1727403529234,14.5664835874769,0.163273409109167,0.168624897704974,0.0946429715847652,0.115938516267834,0.0505173909070921,0.0493323754240436,0.0564616347664351,0.04621896382252,0.0288917074845709,0.0278925548310972,-17,-15.5,0.735257778119405,0.752657385517169,-0.5,0,0.829654246509131,0.834692456114429,0,0,0.933884735457331,0.934354529464333,32.5,67,0.60370026368695,0.534092872381629,0,0,0.88062168428202,0.851325903229383,0,0,0.920142100248267,0.922616702167893,0,0,0.921539191875024,0.938870232804919,0,0,0.939614241257868,0.939325214287817,-391.235246704533,-260.898343100159,33.0528763809324,33.2250517823272,-27.8164836305198,-33.5991112509512,31.1526218131276,32.4773007302688,26.1420541645375,25.3044375644995,25.8415949449831,24.546660769571,18.5135786884738,18.6464675578268,10.2645106018419,8.18330605564649,116.274813796487,98.4319051850316,163.486629036736,165.00084990651,78.4439101237501,40.1027180581317,31.2628532033895,31.3474224913901,15.2292755881457,13.8583163735089,-136.590428951588,-136.686153828816,40.7263219048025,42.06503116488,4.88249118683901,4.35386205878009,23.9924134660977,22.4259974259974,13.4814119065444,13.6487697056973,30.1525267719272,29.8987986406524,76.7471346150149,76.9738941799944,10.4135787433107,17.8141930880339,91.26361110755,91.0672594499871,4.37213636716626,4.37213636716626,22.6325193567599,22.6190476190476,44.3497864162995,45.6817226951169,19.9993150265394,21.6290566649854,28.5714285714286,28.5714285714286,34.6997124215534,49.4018018409791,66.6666666666667,66.6666666666667,6.74554167391357,4.85626083224548,53.3333333333333,144.301075268817,9.67653879576999,6.9326212813157,36.5500361126715,48.7989886219975,21.1624441132638,26.5895953757226,24.8728458680229,23.2563960478505,46.8138335846562,41.6522702104098,27.772135618271,26.1001363801996,12.1288112142337,12.2474657314106,2.34411626816689,3.14197123631086,2.89405790410918,1.25965912230444,1.72047620283568,1.97906152580983,0.802504344552067,2.60800141932049,45.8280657395701,36.5500361126715,43.8456577282763,39.2258028702881,8.7539420181463,5.34922168245292,161.000602772755,125.903614457831,13.3803968040028,9.33895148108166,43.6215643123002,43.1181638951943,85,74.2857142857143,43.4537533620348,42.6177225219251,10.63,10.63
SS01,SHAM2,6,NOSTIM,0,SHAM,POST,FV,3,11.3393242948325,11.5060727539343,11.7784096615452,12.0258187868272,16.5328267866927,16.3881067252734,0.213842989253608,0.222722902117794,0.059235252102175,0.0506900262203391,0.0624383555997819,0.062416171087901,0.0609516913881211,0.0646051507920453,0.0253785664060261,0.0249462530998338,-12.5,-13.5,0.741041660669445,0.691564605540938,0,0,0.819526533079557,0.795151368358733,0,0,0.924201225254822,0.929898553664122,53,53,0.546017020040785,0.540244096615713,0,0,0.906153334795347,0.927396540377531,0,0,0.913223335092058,0.914860405256952,0,0,0.920810899504142,0.909828210264873,0,0,0.937417101142265,0.927211434688211,-632.59905328837,-307.058761491355,46.652125714385,37.5047608353156,-18.2459283272003,-29.4542804091239,27.6868836629622,32.1501866616224,23.3333333333333,25.2259887005649,20.3829925348913,24.3764125744812,11.2824303128992,20.2307531301417,11.5141225497762,3.42857142857143,47.6951579826677,44.754687939682,160,161.651376146789,20.7504410489348,17.1148345147298,22.1351855632195,32.4883993392427,17.2382360890005,19.6896846298113,-118.984371013818,-118.674456939657,40.6080021180423,44.1779284559148,120,120,17.8036331705175,20.7418788410886,17.2216212512882,17.0399102892769,38.5451835261861,35.2702083986017,87.9261818030834,87.7392772905462,21.9503779667125,20.9111914240198,104.265995141918,102.420623758648,3.39775167361374,7.20184600437211,18.1672394043528,18.981018981019,52.7570995217025,50.6476741280843,8.53360996364835,8.00104398975656,20.1680672268907,20,14.6763641489893,15.2986945423214,66.6666666666667,66.6666666666667,12.4928343829473,12.1790430534873,182.435840379766,132.608695652174,14.5618267907877,16.0166751155475,44.2484990632975,37.3887240356083,19.7492163009404,23.2129131437356,22.1850856340637,23.8795988124865,45.8206349206349,43.4658261497565,28.9906860694321,23.2970897521358,15.9708663803096,11.9194033068078,0.78376282922261,3.32268181985905,1.03697448629559,2.9612586349447,1.57312880942465,2.51659690506044,11.9823725423908,2.03627002854737,40.1518518963466,44.2484990632975,39.771463916293,43.4718206186355,11.5919461085327,11.3513196422928,154.474789915966,143.348416289592,16.6188966645057,15.9629843280298,30.6572486430399,27.9353099114126,28.5714285714286,21.978021978022,31.085305531425,26.9047616353297,9.88,9.88
SS01,SHAM2,6,NOSTIM,0,SHAM,POST,SSV,1,11.6651528754631,11.0422199245394,10.6651949703197,10.3473161865728,18.2271259110122,18.1323426521802,0.112863798275148,0.113559393231962,0.106109697146492,0.105582080304821,0.0482492306364451,0.0486597939269176,0.0533191599444265,0.0547023801656028,0.0131916791462566,0.0137148076493747,-16,-17,0.701480021090694,0.655836813742195,0,0,0.87393647177259,0.869811587266007,0,0,0.934238320845889,0.937474310052887,0,0,0.777931775375696,0.81861450286018,0,0,0.843520262794408,0.849318335867602,0,0,0.911796227082795,0.875063380875996,0,0,0.909521322916859,0.889220597376179,0,0,0.942836432280496,0.934248057235889,449.0780256374,348.851620767748,10.1301430215522,7.64416362853775,-41.6739318595351,-38.6736393935625,26.6386733394244,31.9466287470669,37.037037037037,35.5140186915888,23.7762237762238,25.6983240223464,19.6607832686234,13.8590817734967,16.2310866574966,2.58899676375405,134.492423490216,138.150057107041,154.385964912281,151.851851851852,127.341610750007,134.209777017423,12.5178888194267,14.2442066361025,24.159460797945,23.7991760662942,-147.708352235785,-150.105685498755,45.7577478835372,44.1828987317741,2.12765957446809,3.1413612565445,24.1379310344828,24.1379310344828,19.0472540834458,16.9569587467857,59.3909310019502,58.7325472263601,97.5253573198668,99.6756524007101,25.3107738613149,28.3065538562723,110.970906640647,113.807972355647,2.4390243902439,4.81927710843374,17.1428571428571,20.2898550724638,71.0162688650618,71.6002998345221,55.2733096348625,52.3589928715933,40,40,74.8514163862561,72.2977640492629,66.6666666666667,66.6666666666667,29.5632495214367,27.4637210985493,11.7647058823529,28.5714285714286,24.1080762180807,26.1400316534707,45.8072590738423,45.8380286980693,27.7840770137175,24.9761479976459,28.9751432387025,27.8321008879467,49.4584837545126,50,31.7933403016276,29.0708613626018,18.6903425042111,19.1389614572523,2.0618556701031,0.673967986520641,1.42888290563186,2.57210411425749,0.995929186784066,1.90718989954172,3.81301309451117,2.42266263312302,49.0196078431373,45.8072590738423,49.1757917292345,47.1983633306552,37.1931457668892,35.0912834434085,62.3376623376623,123.809523809524,42.4117066398643,39.9989416894853,5.23809568749649,6.05389820453521,31.5789473684211,28.5714285714286,8.84462499507207,8.54667721446125,14.12,14.12
SS01,SHAM2,6,NOSTIM,0,SHAM,POST,SSV,2,12.4738892481666,11.5705254002305,11.163896225785,10.94426004993,16.1439795485992,16.6598909919085,0.112872663344743,0.112603764939712,0.0531314800158111,0.0481773844045606,0.0459575089155261,0.0453577668209381,0.0624525593339495,0.0622137770987414,0.0156233057598129,0.0156257319018087,-17.5,-18,0.716274696549398,0.757320320407676,-1,-1,0.828569577028354,0.831166482331192,0,0,0.963807461367415,0.963515951186356,0,0,0.880913228576163,0.86296302406302,0,0,0.853969240622664,0.896428995652002,0,0,0.898885364456997,0.897676260156837,0,0,0.880207004200662,0.897823239317117,0,0,0.90456686330607,0.906368905923489,286.373947694349,106.95680812789,29.204563920055,10.302259953329,-20.5825137380089,-12.2363348969161,22.618629981667,11.3849935146192,38.0779362339903,40,25.6360708534622,25.6983240223464,15.621502024712,19.0483302982321,9.75044027318415,6.80606563203412,148.730116557442,149.029896807086,87.2727272727273,163.963963963964,146.034502261244,148.115098143557,16.9081297322894,9.52703289089189,18.9694958791379,29.0953064220039,-118.974186660543,-103.319454209332,42.0539510719277,47.4632696529203,4.8532403371113,3.24324324324324,27.0785659801678,30.0884955752212,16.6492456994601,22.9083584941156,61.7454136213719,53.6724118307797,85.2990547612469,84.8086003706583,54.9374047628671,44.2856990396938,89.3300271462314,87.473896345486,1.78996752075063,3.63636363636364,30.9193245778612,27.6923076923077,66.5704262821627,63.4069861263817,22.7839353046369,26.8888877726795,125.380067567567,106.060606060606,33.6254674766981,34.8690078462566,33.3333333333333,0,27.5755041218031,26.2656965232631,100,100,22.5866528374551,22.3094813327719,53.2626910815008,51.5830447869283,26.7139479905437,24.36799381523,26.1449906142971,28.9017770991609,51.2028985507246,48.993288590604,31.4480747746656,28.3023680965945,14.1023116913953,11.4840812461876,2.76761820495835,2.80970625798213,3.23325170438257,3.42120227245457,6.30725624029463,3.29194697269489,1.81794205248828,2.85854921001809,51.5830447869283,53.5077288941736,48.9918031054915,54.769665900654,41.6363134135102,37.132919302181,184.871794871795,30.8571428571429,48.6560077710383,46.0260017082456,4.74997279017016,7.99021279050854,174.106147646403,167.272727272727,3.35460866850031,8.09301463728132,12.87,12.87
SS01,SHAM2,6,NOSTIM,0,SHAM,POST,SSV,3,12.206417129289,13.5005746485194,11.3020584228527,10.7938083876391,17.053557002621,16.1341790304865,0.126195084013386,0.120146524421692,0.0551946199962173,0.0550241245424759,0.0402169883341113,0.0420403943856929,0.0428149823826501,0.0484967781876069,0.0132196115174614,0.0146968080144832,-16,-16.5,0.649054300691846,0.6403020267563,0,-1,0.840172999783149,0.854237461863758,0,0,0.928885819000846,0.943769745720669,0,0,0.887287909139854,0.843940706721118,0,0,0.8899037522873,0.844529494198222,0,0,0.918387293671409,0.942506620865896,0,0,0.934363778127406,0.933088575325519,0,0,0.945630980786588,0.941857380466774,-1596.01040732137,-835.718537133489,20.8816068324373,35.3725073764343,-24.1084853286458,-21.0960805070619,32.5636959916513,24.203012469444,37.037037037037,38.1349782293179,24.2774566473988,25.2736940882077,4.33561743432391,6.42868983764054,2.25352112676057,2.59740259740258,153.224450122839,149.09832597167,151.851851851852,161.904761904762,145.614100122573,142.772999434024,16.8904214532028,18.5454490905879,22.6467323478321,15.3301204140935,-165.953199772962,-157.281909848751,52.3851455279248,45.2813250574175,0,3.75481570927491,25.2100840336134,27.5862068965518,23.2597267351775,13.5758520426555,54.1140571926831,53.8720624275241,97.5195785378173,91.258585054411,24.8231859301578,34.6322803347221,116.468687460167,105.684391421327,3.68098159509202,3.65867261572783,24,32.0512820512821,67.9136509987706,65.6897955634368,13.4106254539236,8.14085515726319,163.963963963964,128.178243774574,18.2382960807651,14.6685868203366,0,0,2.96649336326365,13.30753355294,85.7142857142857,58.3333333333333,3.14077841539977,14.2241186806572,45.8149779735683,33.5315101070155,25.076624414754,19.5152268489745,19.9982153188966,25.2392935402668,40.9202958093673,45.9368443226133,28.7425020264793,29.8175367444152,12.6754942862325,11.2220423831848,4.81727574750831,1.98639455782313,1.43892312849738,3.6880177337324,1.30492323980944,2.47006758192476,3.88107050048936,4.19079416418871,33.5315101070155,49.0171495611967,39.3129634205459,47.9029549378201,20.6383147553115,26.9680459274131,184.761904761905,66.6666666666667,25.3236297816396,32.6897169043436,14.9642785902011,12.5284126400804,40,105.321100917431,10.8771281307928,15.033752278383,12.97,12.97
SS01,TOL30,2,STIM,30,TOL,POST,FV,1,10.4325700152931,10.3926472136929,10.2182395561135,10.435263694497,17.5302689200316,17.3989821914069,0.254506009780168,0.254716227039015,0.145914812100293,0.150858645018014,0.162113019331996,0.155594526055862,0.203625294899698,0.193416364772278,0.170788280802687,0.17921243301072,-23,-24,0.734578969198684,0.714100399168939,0,0,0.911955537062837,0.911155606440158,0,0,0.915910240693358,0.919047555387421,0,0,0.763176208871397,0.784520297935619,0,0,0.90380110965663,0.84082767767857,0,0,0.897793790110499,0.910924117693292,0,0,0.924202299819487,0.944969690578251,0,0,0.91978518796181,0.908959988578357,271.328063757672,331.849841911114,52.2190969365321,49.2734386515083,-15.9510609753111,-10.0821942492248,35.8423446803941,34.6350149135626,46.4285714285714,46.4285714285714,24.6575342465753,27.027027027027,21.6631757529633,18.6861792922834,15.2073732718894,2.75436510419926,24.984263875004,26.2200426807073,142.857142857143,128.571428571429,8.24869218579818,8.07153149881219,3.28906586875901,1.53866021993624,32.2344543333105,27.3397037726957,194.682067984545,240.596297064165,57.396911107076,53.5143637481921,2.12765957446809,4.21052631578947,23.3333333333333,24.7933884297521,17.3124026927698,14.7973119417419,58.6124100120543,57.4150538889983,100.510502679813,100.177384578986,18.8868245287164,15.8905244625221,118.896641180235,118.862330140806,4.59770114942529,5.64971751412429,22.7272727272727,41.2698412698413,72.1533803926638,71.2659603092222,17.7356600618699,13.4219713886029,127.272727272727,123.809523809524,18.4796724021262,19.1280201833881,66.6666666666667,66.6666666666667,32.8612189578475,35.9089257430485,60.8695652173913,65.2631578947368,34.8031001191408,35.1871060573027,55.0857142857143,48.216748768473,21.5844904317174,22.5637032230154,21.2572394471758,21.940678175397,53.0612244897959,49.531914893617,39.8019447592913,39.4296220403924,12.5143350189495,11.3399495665537,2.07555002075551,2.7306578402979,3.42772208150698,2.90681714198566,2.76481265396084,1.6020370272134,0.820938928126289,3.45876526100119,52.5714285714286,55.0857142857143,51.2407415860447,52.0018730976353,57.6566964531909,56.0374620826832,58.0645161290323,59.2,60.4919809047722,58.0667175089028,44.1096268192095,48.8982013709937,22.2222222222222,28.5714285714286,43.7671499908062,46.3110012669796,17.75,17.75
SS01,TOL30,2,STIM,30,TOL,POST,FV,2,9.92857709894267,9.9622758181746,9.53737534524674,9.72216188677392,17.0653934828056,17.2575543793518,0.260472201745071,0.281761833950092,0.108817966873719,0.105553784848854,0.177085692664164,0.187986958882092,0.241519947115353,0.22193491407813,0.201584895911555,0.201261027469521,-23,-22,0.728990842498654,0.719742103667943,0,0,0.935312590651956,0.929758614579408,0,0,0.927140717863712,0.925205647332954,0,0,0.783078167659411,0.772467494537605,0,0,0.887190985107642,0.892848148720901,0,0,0.890081570409873,0.863034006581231,0,2,0.906154291170429,0.912812559801851,0,0,0.876222827105142,0.873375511943852,173.86599683264,178.692875636523,56.0070036008136,57.3519362798671,-32.6030217616539,-44.2876234655562,51.6299503059323,46.5144072244381,45.2008168822328,45.6140350877193,142.368742368743,111.111111111111,42.8804049411504,43.3852029059955,16.1369193154034,1.90023752969121,26.4139764244416,19.6340101220582,135.793548387097,145.299145299145,12.7381761289074,7.18578032491639,5.11222095121223,5.05558966688407,25.8804925814852,25.0865438540397,196.597048623227,195.457829401408,58.8175813429279,58.8011181821076,3.67594378616699,4.21052631578947,24.896694214876,25,12.8450578337665,11.6439708124244,57.8798558501414,58.624259033263,100.377668306929,101.03704028056,31.8333517921307,29.5978640048297,117.314751969464,114.198042140627,3.38355464759959,3.31491712707182,22.4477611940299,27.1604938271605,71.3395921772926,72.3358749784091,8.63208310336456,14.5959527912138,163.310344827586,168,13.606473425426,12.632748571661,66.6666666666667,0,33.0334892895822,34.4540501137944,61.5441176470588,66.6666666666667,32.8171413151691,35.0266105020879,54.8543689320388,56.4102564102564,29.6199213630406,24.5244866856272,28.5354973293115,26.2550958093427,53.5162806424345,49.8723404255319,44.5264242184523,39.9125005696577,11.2909727444201,10.9893526074454,4.15335834438197,2.77551020408163,2.14144174911054,1.23538401393183,2.75064605793534,5.55810473815461,3.27800323968438,2.09411959308577,56.4102564102564,54.8543689320388,57.8185320228574,50.9789960840157,57.1542032614719,54.5366415188471,85.5847404627895,91.588785046729,57.8077601614195,53.8682583615031,47.8758602713682,46.1187102662863,100,100,43.6609177045097,43.8531305261208,18.53,18.53
SS01,TOL30,2,STIM,30,TOL,POST,FV,3,10.7842116533393,10.0944221109083,10.5185118230388,10.9341908365858,18.0730177489863,18.2727270967615,0.237978623853073,0.248133103864589,0.157002008827211,0.161175112431146,0.162038388996068,0.14678338693714,0.167502041491344,0.14353996751906,0.201023145080178,0.20900623075264,-23,-21,0.627253169745094,0.698844932214062,0,0,0.922970668784274,0.936344832665385,0,0,0.926859676719506,0.926897018515851,0,0,0.760403038366745,0.773644638644108,-4,-7,0.835410354400786,0.837523673623333,0,0,0.864574769229955,0.854395288108113,0,0,0.868410184993771,0.912879890349998,0,0,0.887016489639564,0.888972581370313,425.003279382135,385.469903720671,60.5996097410484,57.8988176193701,-37.2612441376995,-23.2814023643648,37.6917107286087,40.79059668634,46.6925465838509,43.4782608695652,188.75,28.9655172413793,33.6983078264769,31.4146169201697,13.4883720930233,1.94174757281554,21.4956624109446,24.5940180567934,134.881320949432,133.333333333333,7.44877555134615,18.3682488661478,4.94290551412475,9.5945062474075,31.0014666586832,29.9499869688692,179.223968980099,182.601648868735,61.0348254943069,63.1192011235846,6.25271385149805,6.12244897959184,25.6282875511397,22.2222222222222,17.0487980044948,18.1367322152287,64.6911382744724,67.5462483257976,101.887395066412,104.955472071198,38.5208828264076,57.7568008967169,110.968536242644,117.747164447074,4.76190476190476,3.42857142857143,31.5602836879433,28.5714285714286,75.2477040028489,77.1563927765918,21.8484062748115,21.3851226764655,139.601139601139,138.461538461538,29.512648587693,22.9066088456493,66.6666666666667,66.6666666666667,38.8364857702589,31.4537965720685,50.9247648902821,80.9523809523809,36.6491467657845,28.2791932743194,50.5050505050505,53.9354838709678,23.9816408491107,27.4922698183931,24.6572335802993,24.1708364524645,51.6199038082136,48.6223662884927,38.1783043873878,36.4699720670391,9.43122063553639,9.12118999817485,3.63796883256897,7.56591517004205,4.12460531070988,4.13311090658076,2.54184387543958,3.20524978189129,2.78055306250319,2.30181632999491,53.5365002799432,50.5050505050505,54.4699145927594,54.0882721165207,49.0446092813637,35.5820533521891,49.6864111498258,35.9712230215827,52.6372471792905,32.8371018547124,54.4819190415307,53.6877087361814,39.2857142857143,50,54.1172185296383,56.4066835330005,18.93,18.93
SS01,TOL30,2,STIM,30,TOL,POST,SSV,1,9.05865753439829,9.33134482994678,9.32488001921093,8.76066321464781,15.8882041245596,16.5576355054292,0.314572615650887,0.261856468162005,0.128092318655863,0.120457247760951,0.164030729545295,0.151756787027338,0.269674905501421,0.228259843010285,0.214537952639475,0.186115042672496,-18,-19.5,0.801634722051238,0.79553495171711,0,0,0.956759006480421,0.9607599872448,0,0,0.923225743233555,0.927455033165449,0,0,0.714275929932925,0.717978684677321,-6,-4,0.840027601654452,0.869511430444919,0,0,0.807428609208726,0.816148370120968,0,11.5,0.872843231180891,0.855828277878055,0,0,0.84091527147693,0.857647724295756,73.9118641396373,71.4508997261511,57.1400744132082,54.4145419194806,-47.8857431635888,-64.425956385052,54.042532577657,56.8591946194394,40.7079646017699,43.1211180124224,20.7650273224044,90.989010989011,36.5117047958647,35.5308232537303,8.94454382826475,3.18650421743205,12.565478093819,14.3534593775929,122.89156626506,122.96511627907,14.4388810238707,9.90835837979301,15.7126316779779,13.7527336944888,27.9356227032932,30.220723071704,92.2117340994049,122.124136547564,54.8929107885162,46.4564234693997,1.06951871657754,3.26163198503624,20,21.6666666666667,21.4740181592273,21.8365489327748,55.0527230727637,53.553664515812,97.4254033646809,96.6704029250752,25.7400973680887,37.1851382591989,114.181050257924,110.198824264768,6.13496932515337,6.02606454423349,41.6666666666667,29.6034946236559,65.8592046507599,66.1426251502402,23.2368632261767,34.0090821465294,164.705882352941,154.415584415584,23.1170051500739,31.7080613291593,0,33.3333333333333,24.8638289084794,22.5359628770891,80.7692307692308,91.4246575342465,23.0904873177563,20.9480489871123,36.3870967741936,36.3870967741936,15.6307893020222,17.1552660152009,15.4520547945205,16.6064402187038,43.5171385991058,45.8252556691863,17.292918005308,22.9530425489707,8.0978124501015,10.1610571925374,1.82415176942721,2.84937206533988,3.48627909179903,2.91952775473158,4.2433844309326,5.02869165697197,3.62242597324517,1.42198245000583,36.3870967741936,36.5398016170709,36.3870967741934,38.713005205081,58.5277942842098,52.7271302615478,109.52380952381,109.212028930339,60.090873992861,58.1775545630641,54.734872995,52.8997861394371,40,23.4817813765182,55.3563143149283,54.9460847504214,21,21
SS01,TOL30,2,STIM,30,TOL,POST,SSV,2,10.5290436033355,10.2008938563553,10.3581616676917,10.5416055996093,18.4345829295937,18.5927569647267,0.215257742213846,0.218032233859366,0.126330312221477,0.115631938571086,0.1560597814566,0.147091747844668,0.160629986713362,0.138878419866297,0.200327550501938,0.192110663731357,-21,-20.5,0.669693746025804,0.661599902802598,0,0,0.925875959368378,0.937754019084663,0,0,0.926659959646008,0.923060199797683,0,0,0.790231280715716,0.760021040993796,-7,-6.5,0.864067161817835,0.855000889740225,21,0,0.823227193767515,0.814621572025576,0,0,0.897471405725492,0.900456740784193,0,0,0.839204983929313,0.847970233322356,324.509225040395,285.813930351906,47.1056631323033,50.1553730425748,-27.803329685694,-22.0516495174278,35.2683330207213,37.0573027266724,50.9090909090909,49.5286195286195,22.2222222222222,22.8381650009311,26.2469088812692,24.7193536911437,10.8932461873638,4.31406384814496,18.155849055094,34.9514321807891,119.327731092437,116.290371570315,16.9741363253219,18.4790471227534,14.7399177037748,16.9386246534705,30.8289241234108,37.152189499016,152.682356435972,173.137305046043,49.7430651564688,56.5237967941034,5.40540540540541,4.8532403371113,26.6666666666667,26.1538461538461,25.6954286729619,24.8372892271992,68.2497524714268,70.9136358143544,106.56669026621,108.065244437653,61.4960964685187,53.8745192719256,118.690830736797,122.463886598467,5.91715976331361,6.05664488017429,53.1645569620253,42.5213675213676,79.8965344056589,80.9004171516179,30.1418826133159,19.0865222326354,168.627450980392,125.666666666667,20.5504794179017,10.1475603415948,66.6666666666667,66.6666666666667,24.4292265251639,25.2590278728191,110.526315789474,87.8718535469109,26.0889153096397,25.0964568440058,47.7714285714286,51.2585812356979,20.9051254089422,23.6908998474835,22.3799432550941,21.8757983028599,52.8901734104046,48.5639241207231,33.6418138053732,33.0619702305796,5.69872958257713,8.44723698315035,3.06542056074767,4.04588749593115,4.50818450162496,2.24817982202119,2.89312731369708,3.80499919055638,5.55076584426304,2.64295676429569,51.2585812356979,44.2288515406162,46.9987788675621,46.571753657811,46.0815015361533,41.9679445468939,85.7142857142857,79.9815922687529,49.2895459621945,44.8401335022695,53.2631883430887,52.4718658329724,90.9090909090909,82.2966507177034,56.1315283903227,54.9093241795767,20.56,20.56
SS01,TOL30,2,STIM,30,TOL,POST,SSV,3,10.9087350850434,10.5199641658002,9.78205620380045,10.2528388844491,18.5030959446957,18.7223699872233,0.238687386756585,0.22799903906336,0.116173571737444,0.111685576603336,0.169919372025214,0.162952730679881,0.190762614043609,0.197470836513224,0.210505553013439,0.196977532176785,-24.5,-23.5,0.587073339528984,0.602966795233856,0,0,0.91850936097771,0.917915647669431,0,0,0.90836533399577,0.899073942397251,0,0,0.764240727318948,0.778368300635165,0,0,0.872130165340645,0.861364520371783,0,0,0.853388616674678,0.87211811346835,0,0,0.89252968338139,0.907950057240558,0,0,0.896186552170698,0.895642741179969,275.991323545381,290.726202823261,62.2073899390115,68.6214317862613,-14.7340472932837,-16.8941322154902,33.9416509725007,33.7840357125392,48.4552088185064,49.5575221238938,19.1229640236263,24.4764733927458,30.9582993641384,30.3825307470858,9.07441016333937,2.95234281137364,37.4346162732219,37.7263579456692,126.696329254728,124.810052600818,23.6713189530171,22.5320408383727,9.80203354084649,7.27229987135442,27.595565711992,27.8477056364947,131.008769923027,130.231097784328,54.0858064445293,52.407869754835,7.18493583000211,4.12505427702996,26.890756302521,28.8036851375153,15.7222306287648,16.1721829820644,70.4961026279603,67.872728676157,114.290704528539,113.10449739669,58.527582135341,57.3533248975185,131.6594786654,128.449661691099,7.79220779220779,9.51706055344932,40.1131625967838,37.7594986290639,81.1416664819457,79.1320010647146,17.2610964881282,15.1643811591918,186.871132633844,186.507936507937,13.2204316622616,12.3797383582104,66.6666666666667,66.6666666666667,37.151844887951,36.4853015305946,77.2698168779613,59.5151981531358,36.288086231289,35.6684860900285,57.4585635359116,57.4983543059942,24.8407643312102,27.5027502750275,24.4439383003226,23.2466444363242,52.7089783281734,55.7265350216628,31.5591876611388,31.9465909710779,6.2888446219813,6.8984464206832,5.53914327917281,3.20208604651433,4.72013482973126,1.64516843188177,7.66738330009214,1.21862952481173,2.04004761115547,4.58683408357063,57.4983543059942,59.0789321176062,61.5911241140436,59.0895047265976,49.0080101532226,51.0015910500009,82.1283064761326,94.7157190635453,50.9373213515329,54.2746361155211,55.2040883436404,53.7814777853755,29.0909090909091,9.0909090909091,57.1334332699529,55.82366618475,20.9,20.9
SS01,TOL50,3,STIM,50,TOL,POST,FV,1,11.1839026318036,11.3661765865892,10.6529804928774,10.7527368735194,16.209323171588,16.4338911403495,0.151333578969624,0.155277110688888,0.161596603290476,0.162262084912377,0.165637015807015,0.179660298587258,0.0921784468040813,0.0693138739523034,0.145650115867951,0.147716090217856,-22,-21,0.673834773738332,0.67116716560305,0,0,0.825265143825543,0.839285742156558,-1,-1,0.905550914006124,0.90185375991171,0,0,0.825041670320501,0.852115332929236,0,0,0.898161910370543,0.907464271661832,0,0,0.913344406275282,0.920146966326918,0,0,0.95922515422734,0.977403133458783,0,0,0.869342872712025,0.872270798043191,334.755730587517,314.333064008875,34.6508349939997,38.2776192727675,-24.5090723120578,-7.64326330077476,29.1990032136116,25.0825424618196,46.1538461538462,45.2830188679245,23.2044198895028,25.7142857142857,19.720172002475,21.328667801802,12.2153852907606,7.16253443526172,24.8706508594319,30.68754427998,143.362831858407,149.54954954955,27.1717547593403,40.3553601614688,11.2209898792356,11.6979826086135,17.779727120895,23.8305426356506,-143.223068718381,-143.278332608446,42.4985289112704,42.5680410586684,5.29100529100529,9.94475138121547,24.1379310344828,23.3333333333333,21.3764675325594,18.331295927458,39.6881770599407,38.2293367736146,92.203663782475,91.685727775482,16.7469638521721,10.0594191874855,107.654661700912,104.192084334405,7.40740740740741,7.5,40,40,56.2241120921664,53.4140134296945,13.2733944150201,13.5245924753828,103.448275862069,114.285714285714,9.61381500254173,1.74462529839759,0,0,44.7723524496454,44.8136637694493,10.6666666666667,27.3381294964029,42.5218596945242,44.8931941210119,56.469997947408,54.8812664907652,31.7999891729974,29.3701869895425,30.2014218151306,29.9015371095472,53.4798534798535,52.7802294792586,17.3388987899822,20.2424843158824,2.96960521718877,4.96708321835454,2.15053763440861,1.48926850635128,1.76802954634149,3.17673793071465,4.6284731531555,2.29469667294255,2.42295258957505,4.63611859838275,54.8812664907652,55.7620817843866,55.0315720595454,55.8074502715596,18.9474080292578,16.943765721541,121.12676056338,62.3376623376623,15.8585290739225,11.5343192065309,15.6905022746535,16.5191175875276,178.947368421053,28.5714285714286,22.8137581731115,23.1290221279206,13.62,13.62
SS01,TOL50,3,STIM,50,TOL,POST,FV,2,11.8016887312933,12.2195951859001,10.6744599121531,11.415517048132,15.1184643973357,14.2177651624732,0.174314208004913,0.176443144517228,0.17813113613219,0.173274898857523,0.203832354615933,0.205967525536575,0.0747817048334102,0.0826230970251451,0.13597597696503,0.138904332371064,-20,-20,0.675600114352828,0.676490639611548,0,0,0.848149910082844,0.820960003724835,-1,-0.5,0.923930187382353,0.918216562994778,0,0,0.803549501473284,0.813094319199872,0,0,0.864219687818953,0.883607122442343,0,0,0.839617916603433,0.852454391279658,0,0,0.976643446709464,0.968470685126007,0,0,0.8736508800611,0.863691093971442,536.124875837569,328.960997753283,55.5326243411924,55.4219769148818,-19.6866389352443,-11.2198676750885,23.5012390432405,33.6266068820612,42.9906542056075,43.4000890075657,24.113475177305,24.2869534159906,25.8275410086935,30.204888458375,11.5330520393811,4.66472303206996,60.2264856684604,61.2356887572152,150.442477876106,149.074074074074,67.9681165514039,70.0908489102117,21.2755615488517,25.8412790337884,20.1034668733495,19.9308855388649,-206.345522834394,-216.730163893029,50.3288116131841,54.1508636445761,6.52173913043478,4.3483398322108,20.6896551724138,21.455938697318,13.5463962733227,13.1093769162505,35.1883183118196,31.3256248030478,78.9725132979307,77.7443400748618,40.8527362418782,20.7800963193824,94.2993257041754,95.4556146313743,2.46913580246914,3.68098159509202,31.25,33.0845771144279,50.0458503981866,47.6835453752157,14.8586253771123,15.3501015027136,36.1904761904762,37.6031263569257,5.44408442915558,5.57586694416567,66.6666666666667,33.3333333333333,35.7669731254405,37.2666996788203,127.272727272727,92.8571428571428,33.4447211688993,35.8141535591618,40.2022756005057,42.6564495530013,20.1643845448281,22.2518321119254,23.0488209897045,22.1961612631416,42.8453267162945,40.0686106346484,17.1270279168512,17.9438885806965,2.87802051991253,4.31801197187483,2.17391304347826,1.81689783136131,0.673335549578419,3.44925603960878,2.62705074148507,3.4311322800115,4.43775579496026,1.97083996989482,42.6564495530013,41.655908118274,44.9079754601229,43.3338856912751,14.5064673301604,19.0710937516672,121.212121212121,143.715846994535,11.9605655258375,17.2256835800668,4.93796207843827,10.0539737454667,40,108.974358974359,10.7982931182852,13.1799529270107,13.69,13.69
SS01,TOL50,3,STIM,50,TOL,POST,FV,3,12.3997966511358,11.843600443851,11.5936725852945,11.3175846153525,14.6119892310404,14.9480974848058,0.167982716043401,0.189215936014431,0.175858204455721,0.150797726776554,0.171520881140148,0.169173316188099,0.067926005093119,0.0673525358063952,0.138752120133019,0.141529582993933,-20,-19,0.757610612679134,0.793718883071768,0,0,0.815372659097593,0.824052401692922,0,0,0.90239802652082,0.914142671189663,0,0,0.879395266115546,0.81883898638364,-5,0,0.872696569761447,0.899329321118902,0,0,0.885584627160215,0.884739059317716,0,0,0.970249638204954,0.975470407322085,0,0,0.87153526032384,0.863732991158856,316.451474647642,321.033680556422,38.5971857297591,37.3839672012758,-21.6755455542126,-22.8914870525133,29.8433083764548,29.8404667430619,39.6428571428572,40.7079646017699,24.8275862068965,24.6575342465753,22.1890218803716,22.2914218014991,7.05218617771508,2.79937791601866,46.3227064641718,54.3233066669641,80.3921568627453,140.350877192982,56.6020951795832,58.1238273650468,35.835804549983,33.1899742178815,16.8544591290761,18.1107968735321,-215.672406737551,-209.647093031184,50.1823090993607,43.1723874760001,3.70954123276104,3.1413612565445,21.3129073439494,21.4876033057851,7.02349383027773,6.34326021365895,24.5620532209659,24.2818726316965,79.1058908625102,75.8816155698791,27.4128795759163,44.460666353515,104.146405791612,95.7565829437964,4.82671021593177,5.91715976331361,36.7363184079602,41.0958904109589,43.1345249641773,45.1800327726549,10.8772412617592,7.40155460803446,64.5588985211628,52.8735632183908,15.8212221771107,22.3708651306995,66.6666666666667,66.6666666666667,37.1963501685346,43.1750078479334,144.588744588745,157.647058823529,32.4848711897514,37.3025459722819,51.7967781908302,51.7967781908302,29.5081967213115,28.0744934888045,28.4201448954407,27.5579640200608,46.9518652226234,49.4658997534922,19.6763985276251,18.2173493154576,6.43874653910813,4.95329341317366,3.35371127402277,2.18245307725883,3.00479543315545,1.16455200456144,3.17552806177716,3.03438796817594,0.914224253831674,3.16467922937778,53.5871762807698,51.7967781908302,52.9533256130686,52.3062671449215,5.6045161250994,4.03545261335731,163.231981981982,78.7878787878788,6.38039755360635,2.83841828734425,18.1132444957249,19.1175034083192,155.451713395639,161.904761904762,22.0979906797395,27.3004504750907,13.43,13.43
SS01,TOL50,3,STIM,50,TOL,POST,SSV,1,12.1160594841025,11.1164993845351,12.4319473971711,11.8066935273857,16.8759863255162,16.9974318622414,0.193109793723738,0.174636188977728,0.149652769003705,0.150698439184069,0.172073131664891,0.176106010352784,0.0809275832534249,0.0816570034616229,0.134558673724544,0.136671168887263,-21,-20.5,0.634474644263897,0.680416572453855,0,0,0.79231219875298,0.795329717098878,0,0,0.926843827353487,0.93100914789555,-5,-4,0.783397277842124,0.788127041879886,0,0,0.887755942065839,0.877883361342294,0,0,0.856186814104456,0.859130312428118,0,0,0.935006739558701,0.933675366752657,0,0,0.849219953359259,0.85163591064027,401.760145336886,300.092951346552,49.4077017448367,51.6155982448791,-43.0929753548039,-34.5338489011151,39.2620746458618,43.3354651766637,48.8190314358538,47.9849279161206,26.9923371647509,28.5742035742036,28.1085159918362,25.6610412287635,3.34316617502459,2.69780885718162,12.0179714341927,10.6246439520574,81.9354838709677,77.4358974358974,21.3131690392993,13.8682525656755,5.05729096619624,7.48993530280976,26.9486943088877,28.4399319828055,-178.087814604343,-181.656784650769,52.8346292136322,56.406344012836,3.16909294512878,3.16909294512878,28.3503802779963,26.0179799048123,23.8790771045461,24.5172306878385,59.1730072717434,54.3377405344002,92.5645586826161,90.9308720510067,42.1634934753395,47.4551022312219,98.937706002294,99.3235194454683,5.81861958266452,6.53000845308538,19.0328305235137,20.6311259861344,67.2502611070279,65.8850806227069,16.3249702842756,13.1699163375133,18.8730605208239,25.3558424362794,16.8832958512548,15.0163206926183,66.6666666666667,66.6666666666667,44.0458200424103,47.0974189158706,123.598461849828,111.367697594501,44.0541619710052,46.7122982560011,57.7367205542725,54.7139208173691,27.790973871734,26.5800354400473,24.547307344909,26.7126844541036,57.820816650727,57.8099838969404,22.3693117438733,23.3992919775442,6.19202015927172,6.53293269823916,2.20728291316526,2.66354438401063,3.19126352669455,1.13108356703453,3.90032888010493,1.69933321685125,4.20526925303996,3.38620759044055,54.7139208173691,55.91662065873,53.2204307783053,55.7715697911983,4.46889144534317,11.5440890024532,67.4452554744526,158.571428571428,4.39361448120959,5.72174149147611,15.2145661369351,16.5801148437681,102.941176470588,104.827586206897,24.3375165091393,25.0083432273573,15.65,15.65
SS01,TOL50,3,STIM,50,TOL,POST,SSV,2,11.9333127457328,11.6087128079125,10.9656420435298,12.0246121627965,15.6181128980274,15.7362447683454,0.192067775127837,0.178934336083484,0.15453891287471,0.168956750056753,0.189760937179369,0.188037871395962,0.0951273839803537,0.0904768359882866,0.132724706744754,0.133132588725573,-20,-21.5,0.706793997311538,0.724743044508611,-2,-2,0.85976175694671,0.796155897909805,-2,-2.5,0.933919868149369,0.935140355026078,-5,-5,0.860803394821225,0.859251593820142,0,0,0.903555155168576,0.921816932942757,0,0,0.855074038785411,0.843563082795586,0,0,0.944446798230496,0.947752952947652,0,0,0.838665673714668,0.858064730544549,143.214078764097,365.983257168244,31.6444317193108,30.8864048317097,-46.1687195110164,-44.5554541272207,35.6263377916211,34.8224542368326,46.7289719626168,47.1740097908322,25.6983240223464,26.9336690534267,21.6024363730497,19.6135007687602,3.84180790960452,2.42261103633917,23.197361164541,11.9303249773799,46.1538461538462,40.2576489533011,18.9814716946514,14.9769047873481,8.44864142779913,14.2376395451041,22.1365722363294,21.9619837103994,-98.6154456748228,-117.810614740335,39.6400319026249,39.8480574353258,4.34782608695652,4.90050490050491,25.2100840336134,26.6028002947678,22.07823504311,16.4817973643308,47.8096871047798,45.7098627397086,86.3469123179299,80.073469823823,33.4609465091065,47.6849306232102,94.6454603518502,84.5309526038122,7.5,8.15251572327044,42.8571428571429,33.4782608695652,61.7480621409019,57.1292275056324,6.39765156481036,11.7023242110318,120,48.5643970467597,11.860252638257,20.0379458728204,0,0,45.6262418564851,44.839781335048,115.789473684211,137.829912023461,45.8786150333474,44.1508796835436,55.0588235294118,53.3039647577092,29.3286545793964,28.2253179890975,27.9897682023153,29.6461973782615,54.5171339563863,54.2597160454204,19.9427256936294,20.426486789456,3.8361442212405,4.18229466000289,1.94174757281554,2.03923575718393,1.26251776448425,1.43657999873114,1.89949922293214,2.55295187495148,1.29932350855676,0.565187504773536,53.3039647577092,55.4514896867838,52.2071162779384,55.5778883048303,3.19485597222848,6.92808277813635,110.588235294118,164.923469387755,9.01315037929472,6.69072115075161,17.1027824716074,12.5696666457428,148.275862068966,164.082162864333,17.606732358112,16.9320722983999,15.12,15.12
SS01,TOL50,3,STIM,50,TOL,POST,SSV,3,12.66085194506,12.562446411178,11.1745814509077,12.175699570863,17.1403200364702,16.4557267965857,0.165054429912525,0.158903307561185,0.15679861703018,0.171838244371949,0.180575030403496,0.170720945020435,0.0736961150587316,0.0628109592162873,0.127923224567416,0.126912445405518,-23,-22.5,0.507504942875954,0.561660464408307,0,-0.5,0.821471531990531,0.791767507220884,0,0,0.896948001856736,0.910349983585603,-3,-3,0.834508091756143,0.838970668167683,0,0,0.910470187259251,0.884723219158648,0,0,0.884546359191066,0.889845722546547,0,0,0.966214603916871,0.976003090319008,0,0,0.885730223726448,0.878690706649261,582.555608046733,621.238733514421,46.4293480951534,51.4704971539054,-6.60522489935282,-13.7633248151981,34.6798734258947,31.8571683469543,49.7706422018348,50.2251876563803,25.6743256743257,29.5789317065913,20.8044392633487,20.8183430203905,4.16156670746633,4.08364979451698,57.3597093763889,52.4707849475538,73.4149054505006,73.3333333333333,57.7747353179872,57.4679183747625,12.8006790390799,14.357067469422,24.0748433383754,24.5520769866886,-180.427953201105,-176.085260584696,53.6020398863933,49.6751997740675,3.12568545733714,3.21436742164264,29.9770690014592,29.4967412484042,20.0717743570264,17.4451959736345,51.8922450349927,48.2640186544387,99.6365561741887,89.2500864602615,34.8146369194523,35.181764618664,112.150831169255,99.5377086213062,7.15077605321508,8.28866701699072,13.9283299526707,17.2541743970315,66.0597072655884,59.9270858198878,20.0652992414239,15.5931283193058,149.601275917065,145.305729417429,24.7067636382988,20.0834173705605,33.3333333333333,33.3333333333333,42.3691371557724,43.3617658779661,131.697912511634,110.955085183273,42.1052502936113,43.3081952904817,57.0379436964504,58.9331252072684,30.5997552019584,28.8188002473717,29.3700082234667,30.3188969596238,55.7386018237082,58.47576841869,21.003110789119,27.6182626818579,6.37271369803011,8.34604147716028,2.00677875096479,3.06947266327206,3.14853416380489,2.95714556094876,2.35210102262747,2.62010922810823,1.30333033303329,4.23521511180939,58.9331252072684,57.7310930603464,58.1563457792453,59.9427422943306,9.92141646102123,13.9957838815166,133.512224209899,97.1929824561405,8.24687888677795,12.167062045982,16.5371992257964,12.6573812772641,85.2130325814539,143.790849673203,16.95591237189,16.8374738225401,15.79,15.79
SS02,RMT30,3,STIM,30,RMT,POST,FV,1,12.5477569744489,12.1644629712308,13.548281648244,13.7105396577923,27.6639893687642,27.2977863198721,0.120903965578641,0.160522171165024,0.289214200639412,0.284410531773332,0.381920590284058,0.363556512821788,0.128227166387009,0.131052255324572,0.133195551630857,0.135652994260761,73.5,74,0.408729036207923,0.411400160296246,0,0,0.834059076868993,0.824524299839776,18,16,0.254168600060617,0.245698970983447,0,0,0.90352384216678,0.838875383949183,2.5,0,0.813238680036016,0.807710005400009,56.5,58.5,0.800540502531654,0.804205753255693,0,0,0.913481899189494,0.91481173553943,0,-0.5,0.887845582775942,0.887556032246703,-304.576896674623,-376.633424440357,106.243083558107,113.61164493807,-94.5176931549542,-97.1751797706276,98.6596397328759,105.269212256777,24.6538782318599,25.9259259259259,159.139784946236,162.852365026278,76.1629785052048,79.1105023555098,6.45161290322581,2.22222222222222,21.6424136537409,14.1836837197255,184.824650689368,165.764411027569,32.9412210548177,25.9915049588068,30.2265678681678,28.7550596435335,54.0313672720548,55.7300474245926,-125.090110580101,-147.631614041615,69.1311868211128,70.0083406709475,96.116504854369,96.116504854369,38.9830508474576,38.9858507505567,49.2418139580647,50.1883213359726,251.579725739087,241.364751821111,153.781197786155,152.677722371412,-266.869412098068,-265.673035374501,78.2422787880826,75.3842124581497,92.7964205816556,146.410256410256,44.6374874707652,39.0196078431373,100.649184456638,100.210104222889,94.0820426929944,96.2506870773524,142.222992890584,147.602739726027,101.286905531686,102.681237420433,0,0,74.4215450334408,72.2090576255845,154.105809802013,156.447368421052,21.2975105273574,20.9029354791071,59.4594594594595,62.0602674333451,35.0030921459493,37.5152253349574,36.8171730159442,35.5641432481482,54.6583692550544,54.558287073751,38.5189180362076,30.0540429422865,27.1279298803268,23.4629718374873,2.84024123698187,0.662258894615792,3.48787144804449,4.30196640759457,3.44791815307162,4.3380377937892,5.43648719289075,2.86423441894367,62.0602674333451,61.9185709314465,64.5639300509702,62.7723788834451,13.1202091541254,10.2120382887517,83.2779936418225,83.8489091501138,12.7182744399044,8.30825669896435,12.9958319905677,13.9911671521073,130.30303030303,129.230769230769,14.1040096903525,10.3081551339818,13.02,13.02
SS02,RMT30,3,STIM,30,RMT,POST,FV,2,12.1715421002808,12.5630998600088,12.4489235126993,12.5556330382733,27.6713834593235,27.6679338624426,0.181737919346426,0.181441599309135,0.271633600236998,0.245112399279576,0.312607189591102,0.303597907975591,0.159478143860358,0.116611876561911,0.152960388944707,0.165447976542146,75,72,0.336313634422668,0.391334024223533,0,0,0.853878555476696,0.854830777020237,18,15.5,0.364216683279631,0.374454092197222,0,0,0.789090857627217,0.802874556098523,-1,0,0.773527053315561,0.770032841942035,40,23,0.789704522602497,0.779645349744424,0,0,0.886201747515242,0.931431018412304,0,0,0.862615078072246,0.87984272315462,685.774899472237,768.186658176126,110.423778006239,108.806928877193,-114.685651844115,-95.751883478648,102.81107774126,96.6522185368644,31.9327731092437,26.332288401254,161.290322580645,159.816225907664,91.0236580082833,79.3996626711927,9.25037130426892,6.28330484330484,5.60133204120751,16.8462822593625,150,160.267558528428,5.9907673664235,18.1047202807593,21.9546480218189,25.8700178707407,49.0483869123847,46.8479899454236,-196.127676587969,-198.666169989246,68.3176021052864,65.8602025139611,0,192.233009708738,36.6666666666667,34.3045244431994,39.9884422113804,40.592169612384,217.511038916833,220.429458022868,134.706997768158,135.356523723695,-281.160402504861,-280.281570497358,66.8745816750573,66.7890253927652,33.3333333333333,31.6666666666667,35.6164383561644,35.7609069048437,94.0564764536204,95.4871527559719,76.9271933949153,78.3402267124374,66.6666666666667,103.492063492064,86.8688147529186,86.3728173679223,0,0,95.3026496920727,93.8347585650374,159.550561797753,166.565349544072,91.5262119707436,96.9586809208598,65.5328798185941,64.2356080061556,36.6215344938749,37.0273794002608,39.4301900646681,34.3868204446174,52.4959742351047,50.5602104763122,42.8367364087052,50.8223441410161,26.6042273129984,30.2514987263036,6.18556701030928,2.72537970974593,6.0592905322907,13.501893168164,4.68230111601316,16.2101254819045,1.76311989503575,2.14101197448263,61.7283950617284,65.5328798185941,68.2173169751497,62.6453515117179,14.5247609022623,9.90771376838956,106.849315068493,74.2785234899329,10.4034290406781,7.36834565459268,26.114770039305,23.1306626782608,127.272727272727,102.857142857143,9.58189158069823,15.3467250893984,13.89,13.89
SS02,RMT30,3,STIM,30,RMT,POST,FV,3,12.7281634568486,12.3666266257487,13.1312608971752,13.3158689777992,27.9387651007883,27.9176096411475,0.149080515407328,0.159327148476924,0.260632251035625,0.262388790700172,0.397055304131121,0.362880124388999,0.151294820772506,0.139372386665127,0.121289788113143,0.117075958686944,73.5,75,0.326242686241154,0.30827132840847,0,0,0.835797838574849,0.825205412436715,12.5,15,0.172326116970863,0.16851119080782,0,0,0.797714379698121,0.828589980870863,-0.5,0,0.809446637262639,0.79567746361478,51,59,0.696449105628259,0.761349169304903,0,0,0.901141009254737,0.886945442719089,0,0,0.907661908617953,0.914502977743317,-692.950369240265,-1169.57863029727,119.595504589818,115.693041677716,-77.5434548196787,-83.4390143864158,95.0928273630624,95.5511301517761,28.0471821756226,30.7692307692308,166.508491508491,168.888888888889,58.2008138118275,61.8755774271744,12.861874635924,5.47947524333474,12.951924897658,21.5810701052092,184.761904761905,173.333333333333,22.4106177365125,32.7902590840376,19.5394680869335,31.5876834780646,51.8807264397915,54.437488951873,-144.583559565458,-154.001218125516,68.5657833123271,67.8365032168285,2.04166666666667,6.12244897959184,41.4510853404698,42.8571428571429,45.3364636760572,45.9817248197026,275.465880716053,270.345910174238,155.820332893341,157.205278796187,-270.777751225002,-275.210302841184,77.7988823139974,77.0614413731449,38.5596598458676,48.5714285714286,51.8681318681319,47.887323943662,97.564826995535,100.214166402556,84.5941134523165,91.1486682046961,102.33918128655,52.6315789473684,89.4588524907054,92.6021971504191,40,40,25.5821190102749,38.7782876006929,153.451043338684,164.044943820225,20.5325517201536,25.1170223289827,60.9811577704248,58.0328855885431,36.2204724409449,31.466482901388,32.3795647890017,35.8021981921741,55.2005771048573,57.8947368421053,36.6440763159127,44.7657295850067,26.0045986115544,28.42935558143,1.59948898706694,2.52197172334734,5.88318063727162,4.13761111699366,3.65687822325947,5.85481505294248,4.02094501688399,0.978968963141936,58.0328855885431,65.699481865285,59.4876441095629,60.8858480374503,18.2848087808268,9.12376050728722,25.4789505796217,35.4430379746835,10.2327608636353,4.21176300274033,12.9494169650728,18.878242872585,118.620689655172,120,14.2677976421989,10.5014449163331,13.44,13.44
SS02,RMT30,3,STIM,30,RMT,POST,SSV,1,11.7159365672064,12.7220857128665,13.009397569651,13.3263365898809,28.5165537739854,28.0941897082092,0.139243018038348,0.137967919486055,0.239701534252106,0.261106482137141,0.27600425843651,0.268102584730434,0.206592045284953,0.221164463327459,0.164790625172893,0.134724720302171,76.5,76,0.327856737846712,0.31777293045113,0,0,0.842312225287734,0.820826278988156,20.5,19,0.191696186958636,0.18612009445672,0,0,0.84970532494912,0.820794675778201,1,0,0.84955257748436,0.809090199451704,0,0,0.816663293402982,0.816986061694703,0,0,0.81939923246264,0.7920021330047,-0.5,0,0.82718187649419,0.878849305243255,763.459964827028,721.405861755908,129.624341205273,138.434554089739,-73.0575268472825,-90.0848829518557,95.6953973606151,110.413171450645,30.8492470113336,36.3636363636364,168.739076154806,165.591397849462,74.6765495228475,69.5864168079641,6.12881069371796,2.67726913702288,20.1927557771102,26.1442244374808,152.094395280236,142.857142857143,33.2798765840903,42.3065790589993,19.9050707198574,21.3561559541037,61.4502554358645,62.1990425617693,-179.891314629419,-193.769205802005,78.5722474819754,78.4464859249768,96.116504854369,0,43.7417072091994,42.1052631578947,52.8848141423373,53.4389302700461,266.330242047934,281.69907295459,151.26821553886,151.448977544639,-273.556300568636,-271.94564426893,74.8404024471273,77.4124598897749,39.8034398034398,37.9084967320261,30.550284629981,43.4782608695652,97.9971295228273,93.3099011009816,82.9439735804038,95.2515243833615,100.429475587703,66.6666666666667,86.130951483337,97.2355388033854,0,0,145.119074231925,149.50916795199,88.8888888888889,142.857142857143,154.628671372995,159.660776427248,73.4343434343434,74.765261627907,42.8396572827417,47.0593706127499,45.0525051330724,44.2041763162994,57.8697933424943,54.1329011345219,45.2400406097609,38.4100781928758,22.6139165950708,21.55862936774,5.0764192462936,2.48719824433064,5.59865957171732,3.12546509897306,8.2611658746052,8.68387687773404,1.79757545077108,4.84881215733241,74.765261627907,69.0909090909091,73.2463773527935,71.3175270944194,13.6065058961556,20.0455544520607,51.5393133997785,60.6060606060606,10.4792455619786,14.3753398434039,20.6510035793141,32.2881427343003,114.227642276423,114.285714285714,10.3874304909279,15.2463583857416,15.52,15.52
SS02,RMT30,3,STIM,30,RMT,POST,SSV,2,12.688085724178,12.395638014886,12.7743895926945,12.2035242186499,29.2497715557533,28.6927193939166,0.157002179336969,0.152729551705204,0.247013313894868,0.238741767866833,0.238931001672208,0.241154626479323,0.121859718366735,0.128705076143792,0.135010789638969,0.139261802997943,77,77,0.228115225351432,0.221313507704519,0,0,0.866350130383635,0.866146320155326,75,76,0.149123834114115,0.17199929477387,0,0,0.795124832587748,0.792483349232019,0,0,0.780562895777389,0.821524221884564,0,0,0.840087585620177,0.841390420660882,0,0,0.891204953119617,0.909991604663933,0,0,0.900464392508534,0.89344934318121,-909.353436587228,-728.494895057969,143.942259400475,139.556576551778,-71.6598531361559,-71.1970379302031,97.2122475253512,96.3755099141017,37.2881355932203,33.6283185840708,169.230769230769,169.230769230769,64.5110694301118,58.6328967319934,10.1814083698656,2.17654171704958,49.9989967745961,50.4546607999632,138.461538461538,157.522123893805,53.1353791195715,54.281039648805,36.1937949327331,36.5502265158955,61.3813688517938,61.7295430699376,-174.037141511692,-163.486539521439,79.5381167048347,78.5090131918463,0,4.04040404040404,44.8275862068966,40.6779661016949,52.5704073758565,51.778673719201,280.605093990547,267.196963428856,160.019533611492,156.318239158578,-295.625965497481,-296.102014239992,77.962960386297,71.9853906291348,145.631067961165,147.169811320755,27.027027027027,11.4285714285714,101.810528928893,103.436873428259,105.739856276179,99.777643431916,148.387096774194,75.7281553398058,109.308429544091,97.8802106851275,0,0,174.510250399571,173.513765110628,100,100,176.99409697728,176.587103089012,57.6241404613327,63.2034632034632,34.7645703811953,33.5428539872651,35.7930241917082,35.7190098261528,56.0351133869788,56.2225475841874,41.1246674617007,42.2414789139226,24.329798166236,20.1130376472842,3.02811824080748,3.79650721336371,4.50900393922342,1.48074568597104,5.79976949435726,4.14587105987662,5.81515083391369,3.86623592071947,63.2034632034632,58.1369248035915,64.3313467392702,64.1174766269284,8.93177352435944,5.28651869133049,137.142857142857,143.589743589744,8.08634340969621,6.1420921309472,45.3357630630837,38.9268422416727,120,127.272727272727,41.5642859962841,33.938123990055,15.9,15.9
SS02,RMT30,3,STIM,30,RMT,POST,SSV,3,12.0765123776395,12.2915199255425,12.5125993315923,12.0996820664719,26.8515462210795,27.3230394050865,0.159443316409619,0.159908131861117,0.253563891762563,0.261527008750779,0.262501253337903,0.25931415974621,0.109601661865514,0.108696693245136,0.126654095835334,0.118884946055278,76.5,77,0.348698940989252,0.329212120914078,0,0,0.825449990979163,0.836827012746076,18.5,21,0.231865269241695,0.208863788800838,0,0,0.702606045085671,0.746965256637939,7.5,19,0.773259759595251,0.774779624953227,0,-1,0.771072199133902,0.769892570775106,0,0,0.912567559575177,0.912023710730049,-1.5,-2,0.885206284333828,0.890361320688096,2037.20920542571,-1512.71538836995,132.859575464072,125.144589771976,-84.4396962313962,-78.0584903218119,100.857679600791,100.059459008475,31.1965811965812,34.2342342342342,163.268646247369,165.957446808511,80.113382131064,80.9042773275509,2.0997375328084,3.8369304556355,42.7312808492425,54.0484400924636,152.845156369184,151.304347826087,51.4808690673486,55.1882458277643,13.6979107142134,11.5072662194784,57.081547202669,56.5321360149885,-216.446237311046,-195.937958461117,79.8092382451589,80.2571188061078,96.116504854369,0,40,40.6779661016949,44.8981974693388,44.8787491601227,251.148809843237,260.808342246414,149.068929079811,152.314832151163,-248.039631447691,-242.715419002175,74.2598323542462,74.9500705018571,36.5904721213416,38.961038961039,28.6666666666667,33.3333333333333,99.5486970991123,101.688304628111,104.540411445377,106.685638932921,146.223316912973,143.529411764706,109.395734897758,107.399439035524,0,0,186.209580437028,185.829975172047,94.017094017094,111.111111111111,187.740855645785,188.085918037169,73.7297297297297,70.2222222222222,39.6017699115044,37.7416773367478,38.1068312423501,41.6658425080795,53.3056937227332,55.6231003039514,47.5755314698548,47.2570919196686,28.7250585764651,33.5598857597339,2.70856539837016,1.14285714285714,1.85106284558649,3.94206660570485,3.38876797126563,2.46917270757043,3.71434178366902,2.93955604528409,69.6565656565656,73.7297297297297,70.2487614464019,72.8200324506969,10.7670430938278,13.3523173256381,80.2025560646252,3.72670807453416,7.03934519045878,6.46795893357886,19.5466640084377,10.3543679312043,58.3333333333333,66.6666666666667,18.2213658840525,12.2646559690749,15.37,15.37
SS02,RMT50,6,STIM,50,RMT,POST,FV,1,13.5730701607521,13.051489456461,14.7962616879282,14.8149096812911,21.7278832626521,22.1100560842926,0.133012742598357,0.129263534752661,0.214138122695076,0.242830379449927,0.116327596762729,0.126264148206345,0.269049962438319,0.279588367102449,0.0917470650524349,0.0959462363294109,47,71,0.365665986979264,0.388017410517098,0,0,0.799875635446452,0.807204446539872,9.5,9,0.651497799152829,0.662889169502765,0,0,0.89475157797417,0.904667994970309,-9.5,-3,0.799298920140745,0.763616394704994,0,0,0.910697994750981,0.904238178900251,0,0,0.92145961165701,0.916757060356838,0,0,0.947553133262101,0.915504076909499,-421.718465756262,-293.538349117102,30.7420139374521,21.2191459428204,-121.61463412821,-122.172847238212,98.3350537535921,96.4865392768648,28.5574229691877,21.3592233009709,152.460777992692,146.39175257732,74.9863440412748,67.4566401548888,4.97576212054206,5.63964656165962,10.4528816622943,13.4836467352236,184.223602484472,40,22.531867371176,24.2070985251426,17.9064175111857,27.7270825097139,47.4098256656988,46.7401926606117,-141.748680792979,-143.805610978086,64.0215243308273,63.7913934840158,2,24.4444444444444,42.0571765399351,42.7350427350427,40.8748806592371,43.0276734957082,118.876618153754,116.892281693141,116.710355805061,118.409699101614,-245.504894945032,-240.078894035612,69.7429808676995,70.1276553726548,99.4658119658119,51.7482517482517,60,61.7283950617284,82.9675267910003,85.2685207623016,36.0084326365742,41.1234452771195,88.0341880341881,29.585798816568,47.3456370760369,53.5903645602003,0,0,14.9790340626733,14.6227192597146,120,120,14.297729660654,16.1814359942923,59.1925258591925,67.9753656658968,35.0030921459493,35.9934598651814,36.5453298537574,34.2899973403613,60.5553789083201,56.3076923076923,32.7027404231215,32.2361859166168,19.3111224401597,18.9530228551158,2.32906840454061,1.94174757281554,3.61847449915829,3.81628396279146,4.05740172492387,5.36234762398081,1.08242206506378,2.51152311920591,67.9753656658968,56.6566566566567,65.9101633081119,57.2169962342394,55.6283493821517,63.0315645211574,12.2717993584135,25.7142857142857,55.6930556704501,58.6853829377415,13.8644508282065,15.3568292996256,88.8888888888889,85.7142857142857,12.9163541728208,13.9028564922426,13.81,13.81
SS02,RMT50,6,STIM,50,RMT,POST,FV,2,13.0791156445942,13.2079271574839,13.7547597211901,13.6357169437624,22.5572050123071,22.8185416091888,0.155802902396028,0.143642888051052,0.266459602273279,0.264587423815539,0.153481842730075,0.147338423507829,0.209240800057312,0.196833823153959,0.107650269386455,0.112167653278604,21.5,23,0.442006076185124,0.450204197924689,0,0,0.848590676265402,0.862296948694391,13.5,12.5,0.676182967712736,0.686907729327265,0,0,0.862087891879348,0.862391887606112,0,15,0.759474531158896,0.757171557574151,0,0,0.888401754707,0.878306183690873,0,0,0.918439904104882,0.929417578496935,0,0,0.933840453386394,0.913902122185306,-121.919047505446,-140.048267105643,51.0812548376887,52.1928373908256,-125.54647222447,-124.119528459615,102.902407640114,100.656974602142,30.5068226120857,33.734335839599,72.2751322751321,71.8424566088115,89.6870720414695,92.6267766483969,6.38006023216887,4.17754569190601,17.6924130176223,8.87232888142539,150.275482093664,70.5434317501072,16.2505491771286,9.54409912684998,16.7165917189363,15.6394753145397,41.8146362993081,39.4795901663733,-325.413273417097,-282.462927831353,65.9180875091033,67.7824796349218,0,192.233009708738,41.7065044183688,42.0571765399351,35.0179451249119,34.0967009541173,112.314538666561,112.248910616258,119.141457679857,119.104112877004,-236.409860179582,-235.441748587631,74.2063564219494,75.7939538761804,34.2206639830325,33.6732026143791,63.1967871485944,62.2727272727273,85.0293104170278,84.718254991242,55.5952056074695,52.7643052938729,131.222763394002,129.957582184517,69.2240481753584,66.9166634128462,0,0,37.59631126247,32.4152409333095,118.073796122577,144.721407624634,28.446329568617,22.5832056280838,69.8956671367817,69.284064665127,32.8888888888889,35.2790250160359,35.6959137324262,35.2090911490965,57.2567096531078,60.6418918918919,43.0664981729768,45.9337297612605,21.6806486473088,24.6258961983231,6.73099436824529,1.37251542095367,3.91517905670633,3.98636254431112,2.8125970611208,4.95789259811402,2.9131528089912,2.25350159478575,67.4851695874654,69.8956671367817,68.1317504163219,68.9169911526778,42.8432903180337,41.3892303185538,84.0250260688219,35.4377605717689,39.8135669089313,39.2408791238859,14.6712517648473,12.7540675144368,124.227642276423,124.227642276423,12.9277624716853,10.3469267908185,15.1,15.1
SS02,RMT50,6,STIM,50,RMT,POST,FV,3,12.891764847388,13.1446344928852,13.9572142338647,14.8988367624637,19.7995964566836,20.5364610761434,0.17891041067661,0.170290806723734,0.263553391846833,0.277322101535539,0.143976205391605,0.150753634017949,0.340954050047703,0.329830187529549,0.112815325531917,0.121806454401502,44.5,24,0.356102697880528,0.363458838465075,0,0,0.80485305447902,0.767221282960212,9.5,10.5,0.713880828288266,0.702663501768594,0,0,0.859594583915664,0.80677896039372,-2.5,16.5,0.775934946970095,0.771147539588898,0,0,0.902125435358955,0.888776721530621,0,0,0.934742948317631,0.942009648105198,0,0,0.934810315511327,0.919401613190018,-246.819950098848,-205.584534078873,26.5528212178134,33.4920448339167,-123.262217991483,-117.52046127522,97.3049091552545,93.4902072477204,32.0910973084886,36.8588842006563,114.011180992313,113.207547169811,67.8680197592101,63.7281666105789,2.55591054313099,9.38014324468505,12.8567151960689,15.2318571980437,171.66149068323,147.857142857143,22.1828698475532,12.6989875147123,3.47916725618798,7.38338749518608,37.4212042728389,41.1675268001371,-179.875813863654,-180.465424747031,65.6882816354721,69.7027093602363,4.04040404040404,4.04040404040404,46.5551839464883,47.3684210526316,30.7149798643156,30.3775917617685,90.4127006208554,105.20943449747,111.98151342868,107.348679038116,-217.446260255592,-216.652368223585,68.9585175250733,63.7331966534041,14.3876636184328,16.1260426320667,64.7421931735657,63.6447392666298,73.3531385223432,75.4587887156395,47.0310143237133,48.2308429331025,145.238095238095,101.240907145913,58.1619344262917,54.9808947535621,0,0,23.6901014156757,34.7012592700352,130.952380952381,125.217391304348,9.96411741334964,22.2204429579678,69.2896174863388,67.9827277058739,40.3977625854568,37.8787878787879,39.6168614751297,40.4132164464355,59.8703705226571,64.1945220844713,34.4138375560736,41.6402921921787,21.2760623154481,24.0637651335947,3.79825834542816,2.63286268914559,3.44821833180302,6.07168260108756,2.91546376571365,2.93260926236795,3.12614320396422,2.29815662359343,67.9827277058739,71.6577957561564,69.126702350955,69.8956235839886,81.7166269304227,76.4116494328403,15.7073038284008,13.4260869565218,77.7127739373905,72.615839311334,12.4026084818164,14.7179356378006,123.636363636363,140,20.1174272639968,24.8036873500586,15.08,15.08
SS02,RMT50,6,STIM,50,RMT,POST,SSV,1,12.8450437716173,12.8920491803091,13.9810795519838,13.6258065090702,23.7382683403023,24.0811283172062,0.125599782928089,0.111433758639595,0.25245021080607,0.232716715353615,0.123729177385002,0.139772812414505,0.154878730620546,0.168999497549703,0.0934864792885287,0.0859696615348911,74,67.5,0.433894849728001,0.42372157295515,0,0,0.808575119338065,0.828898612871126,11,7.5,0.582192447023672,0.573359017509028,0,0,0.855316414722987,0.860293327909236,0,0,0.741641267254983,0.731989644363268,0,0,0.927065943950184,0.909090974918116,0,0,0.920876691504236,0.900320180378807,0,-0.5,0.910815874439106,0.941875363860612,-118.520164476169,-129.545202207825,83.7828101921884,86.2118248233223,-110.426628261944,-122.10320682215,107.519930518636,107.73838801548,22.5806451612903,23.2957366815634,161.290322580645,159.973404255319,83.9823239799049,80.2892650928597,14.8705053346403,9.38702863160746,18.2624469410281,5.01015446521653,191.752577319588,87.4615002483853,33.6331265372511,15.0376776865963,5.09740972336542,18.0821333019942,45.9588374082094,46.9900877034356,-211.710072163763,-205.706820912398,74.0611501218745,72.9220187052138,192.233009708738,192.156108814765,40.6779661016949,38.2877009995654,38.3920765009958,38.6831403723472,142.841168343896,148.157168526777,124.278735180921,123.388283946709,-295.814211432038,-294.78857110053,73.9480487182467,70.6540385756593,34.8387096774194,31.8727685816294,47.3684210526316,56.2671232876713,93.4561087772319,94.5628015549914,65.0961412812492,69.6182172069624,143.529411764706,141.538882803943,76.7674522984929,82.285300574652,0,0,18.494562240168,20.7735439601917,66.6666666666667,66.6666666666665,23.2944933489543,29.1886139187772,67.1979168433731,67.6868078842521,39.8045398758475,33.0869812393405,35.1899809950611,34.710246736844,51.9272727272727,58.2553654607984,52.652603688984,51.2112950959625,27.8092476570186,28.8134779693639,3.57142857142857,5.20091708288223,10.8877991656298,6.91325900134456,8.18772979018357,8.8062297451219,6.89484600954447,6.82345524761906,67.7236693091733,67.1979168433731,68.8713732148365,65.3935945687404,39.3782203849334,22.9162837055218,6.25,18.2754182754183,34.7398073157521,18.6754640936063,11.9718793457526,14.5502578119846,40,43.6974789915967,5.68732808996145,9.87605512916067,19.44,19.44
SS02,RMT50,6,STIM,50,RMT,POST,SSV,2,12.614718859455,12.743173633853,13.1291631050076,13.0759616914375,23.3689359717581,23.0599164611014,0.12901196102306,0.14010867666195,0.247232727568131,0.231505192427138,0.142215949980811,0.139404029373805,0.165603198020873,0.191395219501483,0.11147446707743,0.118580684794222,72,23.5,0.386965700146814,0.374702778132138,0,0,0.833128578383669,0.834571113506488,19,17.5,0.614575611145026,0.576131838049338,0,0,0.789083496285403,0.801337761381112,0,0,0.720876471050357,0.780992266093517,0,-0.5,0.823618410562382,0.816331262796638,0,0,0.954042478365565,0.943481244738923,0,-1,0.89500632130265,0.855388912502957,-30.6767582390907,89.3496209991603,59.2935594763963,65.5046981961817,-111.366374819985,-115.466507112723,95.9223743437165,97.5840081867562,28.3082817565576,30.2889030161758,160.912206073496,157.441992076966,77.5518953632449,77.8872644136474,10.8036890645586,1.98019801980197,3.91554447317812,11.167388455186,159.791332263243,119.71971971972,12.5604517241776,13.2305487322167,5.98720859029712,2.59585501797257,44.6199990430761,46.9693237010774,-216.799887459105,-252.854398406354,74.4325380766961,79.4903085275524,192.233009708738,96.116504854369,38.9655172413793,38.2932483338163,37.9981415959983,38.3330317101481,131.973280994889,132.659138511078,109.530221284168,111.800243203894,-288.915831792536,-290.453155511009,61.8177272960524,62.7247056649386,37.8719646799117,37.0877192982456,48.8376039368743,47.0765118610091,87.4700517187046,88.1600058113764,78.3985752708329,71.599166842493,142.905740609497,136.853625170999,87.9111932423899,80.6520685753169,0,0,17.8936567907217,17.1300927319323,122.222222222222,123.636363636363,20.0917499798715,16.4499853775922,63.8694638694639,64.8513767460619,35.8260869565217,32.3243860651056,32.8784755637986,33.1402830437708,50.9996312057235,51.1661933773557,43.4616963941208,41.5222732971904,27.884565077762,24.8659475737538,3.60854529694288,2.98617339312407,6.47000969357395,4.24250719692353,2.05049068815502,1.59033892773498,4.20559886474631,7.61271184037326,64.8513767460619,63.8608533067636,61.6037874796434,63.2165528400669,45.2964001520987,56.8661138024378,10.5510254509513,16.7832167832168,41.9570426556197,50.6889316132595,19.2766409122234,8.48455342786126,133.636363636364,147.272727272727,17.9573820479597,14.8891806044897,17.81,17.81
SS02,RMT50,6,STIM,50,RMT,POST,SSV,3,12.5474405436661,12.6695748839346,14.2569939649061,14.051693358253,25.5437902437469,24.1321454546806,0.167150766234652,0.135866758007954,0.238993183141538,0.244777599577461,0.131850264517644,0.0982480535955541,0.137123595000709,0.171510705718825,0.0933826644256604,0.0945123139578497,76,77,0.428199915425819,0.404986299511352,0,0,0.768106644971878,0.756636452682943,18,17.5,0.580237074217239,0.579277758404037,0,0,0.822225091193063,0.829144672048586,30,34,0.754031688708884,0.76134772188004,-1,0,0.901530551408286,0.925580362571227,0,0,0.910188339377511,0.910632240009653,0,0,0.935717660940948,0.945544980993976,-229.100718011738,-244.001570216681,78.7487356314554,96.8400836810493,-99.3132133282006,-95.5691767533701,101.239922059551,100.94419317298,30.6306306306306,34.4407283537718,165.591397849462,167.761332099908,83.7964715792479,73.9790989060042,10.5222891117098,10.1865097734705,42.4877312863134,22.5557082847454,131.623931623932,96.2512664640323,29.7293210554941,24.604794286274,8.00979933128224,14.9130434339489,50.0692089815077,45.9936643287672,-283.22028815062,-279.521424471012,83.867991251617,86.3151907981241,4.04040404040404,0,48.2758620689655,48.2758620689655,39.3495721916081,38.9567875087391,146.431755711104,151.88419958654,118.297902072547,118.139853789844,-260.072373895612,-262.250924441926,68.8961202012821,68.3318382797817,43.7086092715232,44.62100456621,48.4848484848485,44.5318972659486,92.3771596275616,91.4678165588911,76.4056282097546,68.8215851682423,132.584269662921,134.473953013279,74.1489765714376,77.9209373349214,0,0,28.4444810074828,15.7245702389297,127.272727272727,126.666666666667,15.6872870736717,13.0840021776685,69.0327070285317,77.4726734499407,36.3414972973112,42.7207637231503,37.6329440403397,36.2415579151724,58.8567395906845,53.6598062559118,58.2306132001872,62.7166937226127,24.2826727066818,33.5814237678583,6.71043034281547,1.98889753891534,6.77694744965704,6.04322907473591,3.11435357606471,10.2294049909023,5.32437418700347,2.74814207244702,77.2889417360285,69.0327070285317,75.3117206982544,69.2268965636293,23.5389170204619,36.2986426541255,20.2898550724638,68.6495726495725,21.5966533391249,31.2273951175426,20.205623746295,17.7708735044732,54.5454545454545,40,6.4271888107244,22.5506002102974,17.01,17.01
SS02,SHAM1,1,NOSTIM,0,SHAM,POST,FV,1,9.86355323878743,9.46478147556473,13.0626337861608,13.5301542318829,28.7315800001756,28.6579305978765,0.302027912117178,0.254748322536725,0.20070457760289,0.202740973167271,0.224358553935811,0.199418495822413,0.126611913097713,0.142486262686877,0.138789312533188,0.154113150811282,77.5,47.5,0.320630793117584,0.32866480631302,0,0,0.876075880780081,0.87342425850946,16.5,17.5,0.141115747723654,0.16199200237222,13.5,11,0.668036450337886,0.682837813535291,0,11,0.793841596002082,0.798541303938731,0,0,0.740328794447805,0.75262816054197,0,0,0.927446246488598,0.91340183218235,0,0,0.887034018827713,0.863112802147553,564.853078840396,810.744066928709,122.960330706514,121.402821918009,-103.387898908595,-102.000061937841,110.781874024497,105.856952664199,36.4411224757409,36.4411224757409,158.548109965635,158.333333333333,80.9228781083619,79.1721662891682,9.10223587642944,5.70125427594071,24.2944205432176,5.13901932528569,118.732537465075,116.739970678396,12.3729121383255,10.8027277004953,25.8568650481284,33.3323173239827,53.2390320456057,54.8175573501649,809.315710300619,4.10822182917698,78.9967154315879,83.0127162310267,0,95.876288659794,38.71975019516,38.3713181394109,37.6541257551726,43.656033128296,285.475020411655,291.200070418577,158.039821132057,158.351939847021,-319.603785953865,-309.03537361638,74.2160392948946,73.9693921355222,26.6666666666667,26.3055513990723,36.9912080755454,46.7272727272727,96.2813406554872,97.8357141239727,33.1415177345213,33.0583040413032,118.108504398827,117.777777777778,43.4702910569807,43.847019028215,20,0,8.44370683985963,15.1681490545745,142.760942760942,70,15.4284648824514,17.61548370089,70.1298701298701,70.1298701298701,35.910878112713,36.4864864864865,35.3073807605034,35.5089841088223,55.3298074154321,59.6843800322061,60.0671743176459,56.2504999337369,28.1159522416611,25.2428828834464,5.10603556176544,2.36023868077968,4.16257027749692,5.09854474991516,5.94926657619731,3.85576137926195,2.47695323265977,0.866931097387485,70.4842091575508,70.1298701298701,71.6666957404219,69.7075796572632,10.3910852748202,12.1871685052696,44.2857142857143,35.2619793999105,6.7385281345929,10.3682616595441,30.1086978149445,28.2382958684613,143.418181818182,168.251748251748,16.0278241936927,20.6472995057018,16.75,16.75
SS02,SHAM1,1,NOSTIM,0,SHAM,POST,FV,2,10.4997919182272,10.7704299370386,13.310124238358,13.4628437960549,27.3537116706689,27.2437235621667,0.212615690896964,0.180300920227539,0.263184514854612,0.235592203519692,0.263986107236705,0.25359591630297,0.198879921094067,0.194861048106277,0.162138160749909,0.165500763281096,-23,-4,0.41076472296295,0.394773136052583,0,0,0.874753367835329,0.863332320547029,17,17,0.243564452971924,0.235818578817313,0,0,0.76819370109088,0.78209454080655,25,20.5,0.76838152452411,0.766978566417705,0,26.5,0.706135024378806,0.707719182627437,0,0,0.920765973954662,0.918101877553037,0,0,0.862137035056692,0.847902759190763,3.05281115244514,4.1839133780165,82.8800350056686,82.064478782625,-97.1806740454918,-97.7848538328405,94.4298764261281,95.261345552879,35.6164383561644,34.1463414634146,160.869565217391,160.434782608696,67.0167013430902,66.9567133951613,16.3380281690141,2.7231467473525,28.3556709117881,8.09541313581738,120.661157024793,121.008403361345,27.268431535625,10.57646252261,22.1821133088489,22.0301382689207,49.3500423092358,50.9322110372809,-941.29071609102,-1383.84804224686,73.986066275458,80.3542932319253,4.04040404040404,5.08142650999794,42.1052631578947,41.0526315789473,38.0309851657924,39.107226417582,266.073171062903,266.986043681521,162.139112769106,162.111322762761,-260.177415770336,-259.509122757891,83.9635042010831,84.1574766374694,38.9261744966443,42.2217079379773,43.4782608695652,40.5479452054795,100.795765010622,98.2190101355639,22.8100180348823,24.9350067302833,117.808219178082,89.267285861713,25.5664060510244,30.7124498724986,0,0,18.3932084169586,6.12348234292214,170.642201834862,152.543598084395,25.1906735878357,19.5108369501014,72.4760892667375,72.7659574468085,36.2855251299342,41.5990006246096,42.088168224771,38.9471739524407,54.1329011345219,53.0536235901656,47.1501680020677,44.1217669665519,28.1694341376981,25.5175991476815,5.31400966183574,1.95235463704381,5.16157015831707,4.11755371057917,2.5541848187506,2.33261475913831,3.46445558555085,6.29817666604819,72.7659574468085,67.7386173710549,70.842790134665,68.6570882194725,40.4112803011409,42.675889140839,64.7482014388489,51.2217194570136,33.9807314654661,35.7600498285429,17.2275188114596,25.2614881647545,166.666666666667,121.129326047359,25.6695948339102,30.0844076057552,14.34,14.34
