Subject,Intervention,SessionOrder,Is_Stim,Frequency,Intensity,PrePost,Speed,Trial,ANKLE_RMSE_JointAngles_U,ANKLE_RMSE_JointAngles_A,HIP_RMSE_JointAngles_U,HIP_RMSE_JointAngles_A,KNEE_RMSE_JointAngles_U,KNEE_RMSE_JointAngles_A,HAM_RMSE_EMG_U,HAM_RMSE_EMG_A,MG_RMSE_EMG_U,MG_RMSE_EMG_A,RF_RMSE_EMG_U,RF_RMSE_EMG_A,TA_RMSE_EMG_U,TA_RMSE_EMG_A,VL_RMSE_EMG_U,VL_RMSE_EMG_A,ANKLE_Lag_JointAngles_CrossCorr_U,ANKLE_Lag_JointAngles_CrossCorr_A,ANKLE_Mag_JointAngles_CrossCorr_U,ANKLE_Mag_JointAngles_CrossCorr_A,HIP_Lag_JointAngles_CrossCorr_U,HIP_Lag_JointAngles_CrossCorr_A,HIP_Mag_JointAngles_CrossCorr_U,HIP_Mag_JointAngles_CrossCorr_A,KNEE_Lag_JointAngles_CrossCorr_U,KNEE_Lag_JointAngles_CrossCorr_A,KNEE_Mag_JointAngles_CrossCorr_U,KNEE_Mag_JointAngles_CrossCorr_A,HAM_Lag_EMG_CrossCorr_U,HAM_Lag_EMG_CrossCorr_A,HAM_Mag_EMG_CrossCorr_U,HAM_Mag_EMG_CrossCorr_A,MG_Lag_EMG_CrossCorr_U,MG_Lag_EMG_CrossCorr_A,MG_Mag_EMG_CrossCorr_U,MG_Mag_EMG_CrossCorr_A,RF_Lag_EMG_CrossCorr_U,RF_Lag_EMG_CrossCorr_A,RF_Mag_EMG_CrossCorr_U,RF_Mag_EMG_CrossCorr_A,TA_Lag_EMG_CrossCorr_U,TA_Lag_EMG_CrossCorr_A,TA_Mag_EMG_CrossCorr_U,TA_Mag_EMG_CrossCorr_A,VL_Lag_EMG_CrossCorr_U,VL_Lag_EMG_CrossCorr_A,VL_Mag_EMG_CrossCorr_U,VL_Mag_EMG_CrossCorr_A,ANKLE_AUC_JointAngles_Sym_U,ANKLE_AUC_JointAngles_Sym_A,ANKLE_JointAngles_Max_Sym_U,ANKLE_JointAngles_Max_Sym_A,ANKLE_JointAngles_Min_Sym_U,ANKLE_JointAngles_Min_Sym_A,ANKLE_JointAngles_Range_Sym_U,ANKLE_JointAngles_Range_Sym_A,ANKLE_MaxPeakIndex_JointAngles_Sym_U,ANKLE_MaxPeakIndex_JointAngles_Sym_A,ANKLE_MinPeakIndex_JointAngles_Sym_U,ANKLE_MinPeakIndex_JointAngles_Sym_A,ANKLE_RMS_JointAngles_Sym_U,ANKLE_RMS_JointAngles_Sym_A,Double_Support_Time_GR_Sym_U,Double_Support_Time_GR_Sym_A,HAM_AUC_EMG_Sym_U,HAM_AUC_EMG_Sym_A,HAM_MaxPeakIndex_EMG_Sym_U,HAM_MaxPeakIndex_EMG_Sym_A,HAM_RMS_EMG_Sym_U,HAM_RMS_EMG_Sym_A,HIP_AUC_JointAngles_Sym_U,HIP_AUC_JointAngles_Sym_A,HIP_JointAngles_Max_Sym_U,HIP_JointAngles_Max_Sym_A,HIP_JointAngles_Min_Sym_U,HIP_JointAngles_Min_Sym_A,HIP_JointAngles_Range_Sym_U,HIP_JointAngles_Range_Sym_A,HIP_MaxPeakIndex_JointAngles_Sym_U,HIP_MaxPeakIndex_JointAngles_Sym_A,HIP_MinPeakIndex_JointAngles_Sym_U,HIP_MinPeakIndex_JointAngles_Sym_A,HIP_RMS_JointAngles_Sym_U,HIP_RMS_JointAngles_Sym_A,KNEE_AUC_JointAngles_Sym_U,KNEE_AUC_JointAngles_Sym_A,KNEE_JointAngles_Max_Sym_U,KNEE_JointAngles_Max_Sym_A,KNEE_JointAngles_Min_Sym_U,KNEE_JointAngles_Min_Sym_A,KNEE_JointAngles_Range_Sym_U,KNEE_JointAngles_Range_Sym_A,KNEE_MaxPeakIndex_JointAngles_Sym_U,KNEE_MaxPeakIndex_JointAngles_Sym_A,KNEE_MinPeakIndex_JointAngles_Sym_U,KNEE_MinPeakIndex_JointAngles_Sym_A,KNEE_RMS_JointAngles_Sym_U,KNEE_RMS_JointAngles_Sym_A,MG_AUC_EMG_Sym_U,MG_AUC_EMG_Sym_A,MG_MaxPeakIndex_EMG_Sym_U,MG_MaxPeakIndex_EMG_Sym_A,MG_RMS_EMG_Sym_U,MG_RMS_EMG_Sym_A,NumSynergies_Sym_U,NumSynergies_Sym_A,RF_AUC_EMG_Sym_U,RF_AUC_EMG_Sym_A,RF_MaxPeakIndex_EMG_Sym_U,RF_MaxPeakIndex_EMG_Sym_A,RF_RMS_EMG_Sym_U,RF_RMS_EMG_Sym_A,Single_Support_Time_GR_Sym_U,Single_Support_Time_GR_Sym_A,StanceDurations_GR_Sym_U,StanceDurations_GR_Sym_A,StancePhasePerc_GR_Sym_U,StancePhasePerc_GR_Sym_A,StepDurations_GR_Sym_U,StepDurations_GR_Sym_A,StepLengths_GR_Sym_U,StepLengths_GR_Sym_A,StepWidths_GR_Sym_U,StepWidths_GR_Sym_A,StrideDurations_GR_Sym_U,StrideDurations_GR_Sym_A,StrideLengths_GR_Sym_U,StrideLengths_GR_Sym_A,StrideVelocities_GR_Sym_U,StrideVelocities_GR_Sym_A,StrideWidths_GR_Sym_U,StrideWidths_GR_Sym_A,SwingDurations_GR_Sym_U,SwingDurations_GR_Sym_A,SwingPhasePerc_GR_Sym_U,SwingPhasePerc_GR_Sym_A,TA_AUC_EMG_Sym_U,TA_AUC_EMG_Sym_A,TA_MaxPeakIndex_EMG_Sym_U,TA_MaxPeakIndex_EMG_Sym_A,TA_RMS_EMG_Sym_U,TA_RMS_EMG_Sym_A,VL_AUC_EMG_Sym_U,VL_AUC_EMG_Sym_A,VL_MaxPeakIndex_EMG_Sym_U,VL_MaxPeakIndex_EMG_Sym_A,VL_RMS_EMG_Sym_U,VL_RMS_EMG_Sym_A,TenMWT_U,TenMWT_A
SS01,RMT30,5,STIM,30,RMT,POST,FV,1,12.8031403090786,12.8803472485864,11.1976902287408,11.2520234459751,14.6041197510139,14.5425663329293,0.222279763703096,0.239171997261546,0.128939869339259,0.133831817630547,0.355742143658528,0.356351539760276,0.224155728823,0.213224431182268,0.300572971271187,0.326182419567082,-18.6,-18.6,0.623052592321463,0.626764301036361,0,0,0.886464891493223,0.885443120924555,-0.2,-0.2,0.914819092864315,0.918309444962464,0,0,0.862794949619919,0.847050235422089,-0.2,-2,0.892464627524079,0.893333880062243,0,0,0.923843373065859,0.92095281004666,0,0,0.926987950114643,0.91928469472687,0,0,0.938467030038536,0.92803311021674,593.040671467092,1720.64092017814,47.4293166707837,43.2624673629078,-30.6683793590957,-28.5642091966549,18.618817176502,17.4751963178064,38.8188902581426,38.5269611153201,31.8466353677621,80.9752373164713,24.3180648180264,25.592249282294,7.90395160372393,3.00300740745607,16.2825334679208,10.1943221369703,130.940028312147,115.145602365115,15.1891129952003,14.2585725599684,24.3627967071984,26.608771412808,5.76522224237202,5.07554919098645,-2159.91709918697,-606.225624870419,38.8664292264531,37.9320485764963,41.2421269739699,39.9259380228437,19.7985867895545,20.3973295855135,4.53725416351642,6.03650703628688,33.2441754889889,33.7278050588902,83.0087721161898,82.4034834581829,35.991603002653,36.9903925432961,96.021033986421,95.5008701742789,6.78000249831085,7.02845028663185,30.1727339816746,22.1850556548668,50.4761453802418,50.7281322141026,14.8005653591755,16.9122020311123,93.5343028380045,107.19324333241,28.2058180767933,29.8731322820348,26.6666666666667,40,151.600998672045,152.056005304407,80.1250533573356,81.8816606162102,151.93067794053,152.00335646302,45.7316381102875,47.8007196231648,23.7634393392264,25.977439932323,23.7291138929995,24.1560534099633,46.2125994926542,46.5712435298236,26.5951080007191,28.2219998760627,9.01963266207852,9.04590805228213,2.6873138099652,3.15743323774795,2.92019989689565,2.04485149828585,2.75303560284796,2.93109744057193,5.29055777704184,2.19231359354794,44.8092031495122,45.7316381102875,44.5397686273704,45.5973167545387,47.2987774476085,43.0267239254825,127.532939873365,97.2164428889071,51.9674469389311,48.1552140964574,143.767140755228,146.79955663264,110.129213701422,130.238376942025,142.766270454244,146.135514998094,12.88,12.88
SS01,RMT30,5,STIM,30,RMT,POST,FV,2,12.7692211978135,12.4664442005457,10.9657146215731,11.3073159620005,15.1386193339739,15.1397578579774,0.268607795263404,0.258544697929004,0.161638286967608,0.156964706501562,0.363543780664054,0.361854858477033,0.2316130321966,0.226709534507186,0.329355782132146,0.327890347007829,-19.2,-18,0.671702067417098,0.716994401992065,0,0,0.899832839429265,0.900329612670334,0,0,0.908452197457834,0.906407934922413,0,0,0.845352827070535,0.848867909449897,-1,-0.2,0.850273267908609,0.86104495238346,0,0,0.914888153697458,0.909136578626215,0,0,0.937124211060256,0.940116731118819,0,0,0.924307001606234,0.926122623201252,399.423573306644,575.661342161501,59.2880401989606,56.1273138762328,-26.3430828584972,-21.648318892027,29.0134914794321,30.2092375371369,36.2680675569586,34.0947830947831,56.6636394791451,55.2400929166349,38.2846509940986,35.2098202263638,10.5314716828953,4.15673802326082,17.1106336247964,13.371267430539,104.003874846886,137.337580829061,13.8643969923062,7.38531712003496,30.0147191551184,33.5995612972612,1.62847122169109,3.66027992153456,826.68817662347,943.620942913678,40.1764990851534,41.4724576155907,1.67543859649123,2.52650242627846,19.9254492475536,14.8819104142273,10.0339521816095,12.963537558579,31.4672310146649,29.9504244473028,85.827529237384,85.1553546976338,26.8946930998943,26.9247331418739,97.0159403382187,101.078535956231,2.88719697575402,3.37952794808743,30.3598622399623,49.9457094463681,50.4984324672574,49.7304517639884,17.1421741232922,15.5250149788864,93.9415968056598,63.7649460589273,30.7447686675481,29.9719662561173,53.3333333333334,53.3333333333334,147.368900961218,145.96102115241,101.710964875052,70.4930727042341,147.107609325145,145.576878869038,45.7507614545302,48.5576694759613,26.8644844863781,24.1020355991672,26.6945486645609,24.7191955836383,45.3560698824952,43.9183514566662,29.8575662466229,30.4825106977402,12.0808823660728,12.58115923887,3.3983129378146,1.45750198064389,2.08289325141075,2.78590489184679,3.33581409686688,4.11098446984528,1.80920334462545,2.41731365341166,48.5576694759613,46.1442858259449,47.7289667165486,45.6359209291701,53.0568286540066,50.9478767159869,99.8540468819107,85.1210622933742,56.1578364870373,54.653005665504,141.515546029291,140.422309798061,116.025677499362,90.0240394977238,142.069522048908,140.943905297464,12.59,12.59
SS01,RMT30,5,STIM,30,RMT,POST,FV,3,12.457540547242,12.231583849874,13.7935434422838,14.3989826416445,13.3785691284991,13.2837405255464,0.273249555228904,0.268579416606715,0.15767549556119,0.15900881146794,0.36848082691663,0.382124832199763,0.280190678649409,0.279715350917464,0.318160338472622,0.328031040819327,-21.2,-22,0.671355303771118,0.711119327813329,0,0,0.846922368185689,0.834539173027283,-1.6,-1.5,0.915130730893173,0.91174316787036,0,0,0.835624841656095,0.841152730261298,-1.4,-0.75,0.905979239831086,0.897159695426926,0,0,0.90831879000532,0.906169483737642,0,0,0.905515172775759,0.898426207943847,0,0,0.924842190068966,0.922937587774209,2590.58143807977,586.652601720101,43.8780998798723,42.0537100901243,-21.1574487359268,-24.2337488592115,20.6731509130634,24.1534271612932,40.4343284999254,41.497454327643,30.382650401418,31.4645951264052,18.6013858072466,24.7340229387659,5.45803688738651,2.70126719807231,27.2184225298374,21.632680530477,119.864567956522,110.756488848311,17.2874539682365,9.71490984587847,33.1561843093497,34.5912039713375,5.38932473991204,5.06540936361378,3324.08802084355,3817.08462493474,40.6561571382094,41.7775625564609,3.64132309815422,4.81348105076135,27.078670651256,27.8309550037928,10.2832286789678,10.8756209212442,18.576381411907,17.2003853497585,70.6716456671279,69.4013158275843,37.9126721017371,42.0235852077341,82.7702355258568,81.6223471394925,5.32225784121992,5.41948554769067,19.4760022586109,20.7478381391425,37.8712194173407,36.9669529724871,28.7050257826124,26.4048266457644,48.3939228836255,29.9790850906575,39.6495686197163,37.7006386443883,40,50,148.887514118296,151.050025888193,61.7584617377574,69.0622676360635,148.098207664947,150.511994829496,53.9652217369768,53.4442969807995,31.6454984767618,32.2458389507627,28.4379672733101,29.8029861090056,50.1869816454368,52.2762971501981,24.6576394589225,26.5950420105676,6.92297540037782,8.66503633474659,2.01951780939137,2.19025945065645,2.8120104601649,2.78907034807292,2.10406593133504,2.03844805695014,2.55497340562123,3.11786033499722,51.093168455352,53.9652217369768,51.5351515766389,54.1508724972437,55.4433396386759,53.2328913609635,109.062063652559,89.8828767172686,61.9219852310503,60.1537001992007,140.858442528577,142.044884541199,132.150922264457,132.958367347913,140.509875836523,141.774908278275,11.25,11.25
SS01,RMT30,5,STIM,30,RMT,POST,SSV,1,12.1048734387773,12.3082252595182,11.1933566333296,11.2549420482691,16.0111836720136,16.0636633440377,0.193245029490422,0.193195754998315,0.151592907592368,0.14514706956186,0.245234991069889,0.244518344617759,0.199111998410425,0.199808148495311,0.265417186586303,0.265117079146709,-22.3333333333333,-22.1666666666667,0.501483067469989,0.512740249044956,0,0,0.885477283358496,0.885022587695321,-1.66666666666667,-0.833333333333333,0.918952502435622,0.925719677058408,-0.333333333333333,-1.16666666666667,0.84618553349743,0.850888697240172,-4.66666666666667,-2.83333333333333,0.837905243925701,0.836250307624645,0,0,0.842370702065333,0.849485057276937,0,0,0.905573085128684,0.910231855141691,0,-0.333333333333333,0.86950888424697,0.869844005003338,1345.81096313744,722.801373741334,63.5363138596601,64.9061852948697,-34.6799474528868,-32.6867010768016,24.0772041440644,24.8424946953487,48.3450527781711,47.957222992234,51.484711619904,53.807244930821,23.1480644659792,22.4218144292545,8.08025091622602,2.4160172546303,18.4337500373781,20.6294011391855,117.746454178387,103.372216683283,14.5997713407764,15.1872486763806,11.717117925423,12.1147034142891,15.3136486798737,16.6434148572192,1083.5882435385,-3593.40033970088,43.045016202225,43.6531088193586,4.00827798426196,4.92859302765128,29.0849256741055,28.1082733071444,5.81352650350459,7.80949312277279,49.5375415224198,51.0778044476081,87.0424344659671,88.7973631491363,54.587886058364,63.6623761365699,91.1662046355183,92.0955663516729,8.84562596408864,7.74891906760749,33.9693827336519,31.8332087492392,61.9796487831265,63.6134593241945,35.4862118195803,32.3744195966617,117.030122504511,115.832411048157,44.6210006479173,44.9819321896065,66.6666666666667,66.6666666666667,146.41332126219,145.917760271282,101.190477182865,95.9786092386957,145.447217142703,145.094943408422,49.8942909903652,50.5227526451386,27.8904281792523,24.7544834543006,26.1167718039805,25.2086184515199,51.5659101632433,51.4875975985972,28.7957334908584,27.8432557086466,11.375619710138,10.4871811155459,3.19713937729934,2.20737942078518,1.20349380734404,2.98609013692485,3.60449639520713,2.73702492650574,3.72180943821531,3.54293663600525,50.5227526451386,49.197623444352,50.5271525644332,49.4373622572367,54.1816723306402,56.0821434141677,84.278837425799,78.6350951419043,61.070656456395,63.133727392497,150.534094214643,150.466899702328,154.145940087192,143.476397579532,149.500784258323,149.325945045596,16.25,16.25
SS01,RMT30,5,STIM,30,RMT,POST,SSV,2,12.9470912522177,12.6713731992966,12.3968200547832,12.049883664172,14.2745968006755,14.2057569340762,0.238245415149348,0.241568889069876,0.180274604528495,0.188345957167457,0.30316561594127,0.303171128590733,0.203029662190972,0.198208917297668,0.290217722843017,0.290639046442001,-21.2,-20.6,0.629376705036369,0.65340250443999,-0.2,0,0.872830797388553,0.881032547112617,-1.8,-0.6,0.920128836004745,0.925531880097623,-0.2,-1,0.785107375281455,0.790929446556074,-4.4,-3.4,0.865766265045902,0.859413168069332,0,0,0.858732789659664,0.868633248784031,0,0,0.934325653701031,0.94074730505522,0,0,0.864909917089563,0.871026955253068,189.68968985668,3737.01686757235,39.6033980192914,44.1633795125118,-35.6082156901988,-24.0165138953559,25.5104510326963,31.9323494560312,47.3881716988513,47.8750040408176,59.4868920912233,58.9618476152718,16.8326589213387,20.8820443378426,9.45284172499446,2.15483396954916,8.03064943820976,10.6702918074487,109.233467601074,112.346869161602,8.96510661790311,6.73202516197323,15.500934434436,17.9908735479035,10.7757201689994,9.0242855025055,-213.409924322897,128.425328701107,37.3993535830504,34.7650759298094,5.00208481451334,4.78879225237451,29.2400293984163,26.5207519900746,7.15253071163563,6.65361665173096,35.2331050672175,38.1077970196917,78.9687009563268,79.7223507349645,27.5473171234922,34.6782609312962,89.1743714162218,88.1961555677618,8.60322087935878,6.95074803191739,31.9243868910955,34.4997533955599,50.1270703151737,52.3975341701332,44.9109981059579,47.2986732774466,60.7194371765801,68.1162644544998,60.0541257377119,59.0863150271459,26.6666666666667,26.6666666666667,151.984386147802,152.411102108768,120.087360388862,77.5094356834173,149.146299497492,149.936585234911,48.06238549518,50.4637483102861,28.1710755198464,26.6922135197124,27.5560391345247,25.7277803900564,51.2315174841303,52.7767718493597,20.6305054191549,19.1461718823369,5.7366219013501,5.00028453352552,1.77665262545476,2.54448715636136,1.94528692291692,1.65746484640885,3.72168637050408,1.48302229221047,4.86095863099102,4.89098694750226,50.4637483102861,49.4275291264149,51.4438377731121,49.1823871788719,57.4977537789846,55.4804883830585,129.827878519829,92.1083085071168,59.7918533405972,58.0500121327618,150.786698597577,151.011822030646,152.679289328857,123.783738001129,149.602092891332,150.464925560068,14.62,14.62
SS01,RMT30,5,STIM,30,RMT,POST,SSV,3,13.7787252535043,13.03876716838,10.8617660624337,11.4670962290559,15.388114946537,14.6694762373305,0.170566880605111,0.161063836973341,0.136953210453316,0.13705384922264,0.29077801462623,0.289618835606141,0.175992328552441,0.174950351141992,0.252326599124453,0.250641434500213,-18.8333333333333,-18.8333333333333,0.569435047582471,0.641504583316636,0,0,0.903647501272733,0.896453002361038,-0.5,-0.166666666666667,0.952149585141119,0.950876728899387,0,0,0.864520533739595,0.864052669995771,-6,-7.66666666666667,0.853526141760331,0.850928388400617,0.166666666666667,0,0.919917699636836,0.919712759023995,0.5,0,0.9133602276679,0.908706057932984,0,0,0.929083323958972,0.916941801180126,-1202.12102045076,440.78459909287,69.9505428829151,67.6609352500013,-39.6027551625495,-23.3162738037697,34.5453928041338,34.0386235688286,40.1956563521627,40.5694596923269,77.1623899646598,78.426986916623,37.8492127967859,38.7862456374547,17.2587277646816,3.37773539707617,22.4453165584464,19.7736579974199,124.005987469412,117.29616302521,19.7981204639616,15.0467002394133,17.0511649997038,19.1480411778853,14.3684950001404,12.124326519912,537.87242986376,556.621767165684,49.0823536004849,46.9592166134728,4.6863472029034,5.99138336040066,23.0083389143604,23.0365083124271,2.17340081643673,3.29971629099327,51.250791998407,45.8795063319632,83.8701717362654,79.044081433458,58.8810957993325,53.7891679484594,88.0751122242596,83.8601015664939,3.29165316984359,4.10795949732182,21.8229308817544,21.7950255093611,61.7548301510521,56.5204188873781,23.714762916868,21.0498990103873,132.980358252554,143.537833982092,40.3879135569881,37.7517706107883,33.3333333333333,33.3333333333333,151.9150763747,150.920121381225,130.722644907394,80.1116838111356,150.464429203151,149.405668548766,46.8496405441866,39.8857569618165,21.6903117004846,23.1558793076642,20.344696150386,22.488818713239,44.9599877381954,46.0741597494842,26.72240247593,31.5948225174455,9.61879213521204,12.526918599092,3.77289633619952,2.86958549799406,3.41471301052869,2.58752455813865,5.64246025721844,2.99653429076828,4.44366641056904,1.48448395733101,39.8857569618165,43.7930641548107,40.5792986683265,44.1924167538007,40.0762353308204,38.7693587109516,53.8788293936487,69.2751068608181,45.1539309106449,43.9499799268417,147.109826357069,144.965579175909,57.1125893077112,53.6752136752136,145.047041249143,142.344318686251,15.19,15.19
SS01,RMT50,4,STIM,50,RMT,POST,FV,1,12.4179090240451,12.2792504904919,14.4713971104025,14.7203410909891,16.0915899835834,15.8600457057427,0.200929498350924,0.205511366603508,0.265435945660186,0.254858816267307,0.216964245862187,0.214780280465834,0.340688754002863,0.317070604112333,0.216135217419703,0.214280868378208,-20.5,-20.8,0.511867766975897,0.545083508106416,0,0,0.806678998338998,0.804521049622122,-0.666666666666667,-0.4,0.926305350336064,0.92863776679004,-0.166666666666667,-0.2,0.835480053038995,0.831076398762839,-4.33333333333333,0.2,0.839852929417913,0.831176669943607,0,-0.2,0.917515572152859,0.921738521345692,1.5,0,0.914657480223862,0.904833415403314,-1.66666666666667,0.6,0.878620017817821,0.888225593377307,-1753.01596514901,-1801.12214019367,78.1207662685921,77.8960907387697,-21.7238619420093,-15.4373667676669,44.6983343094158,45.8855720733238,39.1548691548692,38.994737502491,51.6405563235724,56.403031469796,47.5776231107866,51.262300054429,5.59180123681441,3.77920540383438,24.4841715931598,28.9095043839813,146.824428774611,151.821956985575,15.9671568442369,16.9612657657788,35.0030076025755,36.2656533839105,14.962305364287,12.5679834914289,-47146.1401593592,273.5469073503,63.6958132298625,61.3425645506027,70.8258445505665,81.5529980206865,25.9171458822877,26.6032308212913,4.69029261514057,5.47782585173327,47.4103116864142,46.7694228191657,86.6000123873388,84.8836668256745,38.142791885854,40.2429522158274,95.1478642401633,92.7345045736456,7.96081555256317,8.14479955891515,41.6582051827331,26.6331979238978,59.9322465404981,58.5874850726965,55.6855774824084,52.0772935266061,106.091221931488,127.557137389973,70.4026121306341,68.0542263661605,50,60,186.017622399321,185.907503086182,101.999601197003,85.5671491682781,185.842975918939,185.715083876325,58.2836413724586,56.5834702938352,31.8722202677884,34.2667760166033,32.6593233206099,33.5424048994237,52.0229696920117,53.1434837739098,37.8316970378204,40.8147675017662,16.8465846361953,19.1149984034677,3.36116860084228,2.41281308848355,3.40764214612422,4.39113724994744,5.49682810061965,1.97918097519167,3.16340906340296,4.75704989941276,56.9028919115293,58.2836413724586,57.9157902855282,58.2620686438395,88.1839002725358,82.6859431903623,63.2155430160749,67.5281544713665,94.6220066818036,89.5221103134102,153.990523977037,154.074984009964,84.3459501670151,89.760504631374,151.924642645772,152.171623108683,12.62,12.62
SS01,RMT50,4,STIM,50,RMT,POST,FV,2,12.5888039385032,12.5118826926164,13.1500765416577,13.3393718685558,15.3032758017696,15.4366741726033,0.218020794170596,0.213503653087515,0.237999859545601,0.232194203725043,0.235044186911575,0.234632569698941,0.311007684878771,0.314673513599529,0.206018551028861,0.208463311892164,-20.1666666666667,-20.2,0.389203593473642,0.39898219382483,0,0,0.853854318202979,0.848471824806201,-0.666666666666667,-0.4,0.905313878141149,0.909489151812153,0,0,0.796928911653493,0.808755344201494,0,1.4,0.833282244583008,0.843701996595898,0,0,0.93243671983114,0.936500012932074,0,0,0.918777431806726,0.925131673389848,0,0,0.923735475162923,0.921444278669192,1328.78462894627,1447.15883827304,85.0390178820011,83.1403141721489,-31.6578749562999,-30.1262983492991,35.5832822980282,34.0484938543164,38.4569092902426,39.1781174811945,55.0285329270067,59.2335597119514,35.2462006786834,36.859996338762,5.06295719140406,3.8780697576029,26.4814584102173,27.7654349994909,150.172972760692,152.549081549082,17.2057042205681,18.9356887337637,32.9493486454261,34.7127196319209,11.5975135620547,12.5371045849907,581.432378840136,807.601061551373,67.1965386246169,69.2298540443231,38.0320046682056,42.0659703382168,24.5723714583202,21.3774471537249,8.20246151553661,8.77023681931633,39.3093688830206,41.8390052802119,85.5887764334074,87.0712344518799,34.3154129752297,33.8038248432533,95.2290231553801,97.4481182689548,5.14582826604332,5.40113432839225,33.9360834816142,35.907991065678,56.4926847756516,58.9496272861783,49.2421913562224,48.8103169134441,100.06525273966,108.01638864501,66.0361525774989,64.8745273656002,66.6666666666667,66.6666666666667,186.964923143994,186.959766911156,117.278147483317,105.511143941517,186.904653499904,186.980494025618,53.336488401783,52.650509833048,29.7529339656224,28.9280777028515,28.9653054756114,29.0824840975823,46.5743068055653,47.4078942723178,37.3719284823062,38.4783233329596,14.5799982712014,15.7466515232322,3.35026216797992,0.46542380147888,3.4462685270598,4.30427684598267,2.16040165228303,4.43851240394085,2.91181808349813,4.38946578265548,52.5786450523442,53.336488401783,52.480895288921,52.9074347385388,84.3296053648027,85.3943990231884,103.553547901374,89.633595141019,88.8818401432154,90.3916961283106,149.404293741734,149.669814531302,109.838886903107,105.971166448231,148.068481264519,148.743034985375,12.31,12.31
SS01,RMT50,4,STIM,50,RMT,POST,FV,3,12.3263345360251,12.3549333289977,14.8150227524939,15.3664615150816,14.7198241985471,14.5877540768767,0.251577120600674,0.244386445404628,0.293488429893713,0.287633887464898,0.231756384618212,0.231629205377884,0.28743996006246,0.291441801127165,0.217507272913493,0.221575167586089,-22,-22.6,0.627403174046296,0.645933032265624,0,0,0.811386046651009,0.800335159431738,-1.4,-1.6,0.909998610641408,0.907974343894967,12.4,11.6,0.772463205481307,0.786445512475298,-0.8,0,0.868549674140336,0.867957999918744,0,0,0.944654651515625,0.940271314585377,0,0,0.893808164107464,0.892095382757671,0,0,0.883319410938993,0.893525560856138,-440.162374512734,-91.5853577239588,48.7414189957168,45.1407834982497,-10.4992953339634,-24.3647242581899,17.0045194111226,22.7793403808195,42.0794756749615,43.283570012542,31.9464669712922,32.9244033344753,15.8085144001194,19.0742465857183,4.89308178507556,2.09372518630447,22.5172967992295,21.8139989345609,157.820410585943,145.659752411709,18.8839872222094,11.7714923186213,29.0158439289801,31.2307083925753,12.842959678207,11.4556111472974,-1304.29017735164,-7587.98010497131,53.9457590603961,53.5917825251297,8.88437649006337,8.89015983217278,25.862193170519,27.0980438035907,3.97359272156827,7.48625290302519,30.0576773440232,29.3051196194888,76.719041187566,76.3500456843906,18.5378023279306,25.7736105024699,87.5329485016734,86.5348616814284,7.69595194651062,7.21726153771182,23.2941176470588,23.8527366353453,46.5586892765662,45.60854229309,64.8858202566375,63.871121653364,139.417519262347,137.101575740968,77.5564324420681,75.9648240288172,66.6666666666667,53.3333333333334,187.12364162502,186.922322764316,135.482420019005,140.049392872922,187.284451318494,186.986502254059,59.797272024303,57.6660101823033,32.9115609107396,32.4144932396087,32.392138392621,33.0739189798825,57.1424089117359,57.5638151387124,36.468816966388,37.4756182919039,15.3358419491739,15.9430494009825,3.66157450897317,1.96170466867616,2.4565848156548,2.10124426411043,3.05920102537645,3.33487793807031,3.24188611972,3.36895700020033,58.6504552046662,59.797272024303,57.832781006667,59.6545511905991,72.2691971567885,72.15105628239,72.3492632121015,85.5945150904503,76.3193177511332,76.7926264907052,149.956857529341,151.14172551479,132.968564146134,129.484693178392,147.93094391752,148.895375201947,12.4,12.4
SS01,RMT50,4,STIM,50,RMT,POST,SSV,1,13.1038319289918,13.6061220713036,10.7923523854606,11.429122752997,18.1999844765292,17.6165436286152,0.187908749227139,0.182496955068887,0.202135175318758,0.199066596918408,0.183730821785463,0.18697631961668,0.250289980526781,0.250611689632274,0.159768281863343,0.160232115266556,-17.3333333333333,-18.1666666666667,0.460857055152645,0.475808222479647,0,0,0.90487354852716,0.893476635333258,0,0,0.941761555819419,0.948175818912839,7.16666666666667,5.5,0.750218266352309,0.757707430284948,-0.833333333333333,0.5,0.852173659387743,0.867485252275357,0,0,0.956218390689155,0.952918909135594,0,0,0.911527371602889,0.911489813204678,0,0,0.92117477338755,0.922809646353694,-6195.27307934799,-14040.4679510094,78.2635976558847,78.3827483427736,-18.5692957562794,-11.7808073637196,39.4991793562422,38.654091851846,40.8035365281297,42.1308163701673,124.421003211329,101.006160152545,14.8292502143067,15.4161480217306,12.3273680772418,0.885137170352591,18.9529889689732,17.5888460842501,117.089861397173,127.9442995992,13.6931729292261,10.9430649726608,6.52855476640848,8.89828733985562,27.6800463802114,25.0985716103524,-1469.98874608212,-7044850.35703134,61.0922293654943,57.7669231658009,66.9997122651257,38.4338725980063,20.5631255192797,21.41839172196,13.3793502429456,11.2991771048633,72.8477040049522,70.3643765013048,101.537771273229,97.4232320642549,113.195397203465,115.609688905299,100.10865522066,95.1951965206164,4.011414901933,3.85222940415286,32.7387407949036,32.1885926219766,81.9588839808019,78.6903913225944,56.9287413311421,56.7229409697449,84.2966085152365,85.474249610872,70.8666037611587,70.5304379203588,55.5555555555556,55.5555555555556,184.639927698626,184.815169452546,95.055921425526,98.689271499879,184.733699339885,184.949040795661,42.435548898591,40.655455333207,23.3133075477194,19.0553904268862,20.3473658809309,20.7659441579414,46.8456257653064,49.40400084881,31.0296069558853,32.3945339023718,13.3147905565203,13.921984533871,3.40549331270582,3.54853295986914,3.91470608612901,5.3718493336866,3.72623449123735,2.15878105893659,6.65538443713755,3.08733312226348,40.655455333207,42.3522047273205,42.2595421259901,42.845983143723,89.8144689628095,90.0968773997735,133.99011256754,74.127116974097,94.8133986537078,95.090666267591,155.835337238817,156.902142455061,129.7808871934,129.488309753607,156.902256979692,158.090145623973,16.78,16.78
SS01,RMT50,4,STIM,50,RMT,POST,SSV,2,14.1798071949966,13.5817160044839,11.9536957654878,11.670368130601,16.6649735017,16.5193219664129,0.163897690694553,0.156990543717135,0.221498700852623,0.2192119676184,0.18955929174298,0.186009474955923,0.211564121129104,0.210271879871164,0.165987048169161,0.166628780663414,-20.1666666666667,-20.3333333333333,0.358530988597079,0.389372534694994,0,0,0.853130830713484,0.86030506841009,-1,-0.833333333333333,0.923005241776631,0.930679501644543,-0.166666666666667,0,0.776870198789991,0.786292617821476,-2.66666666666667,-2,0.847502313048255,0.85840671600597,0,0,0.947568746236062,0.952210374016857,0,0,0.913354319526246,0.911955945068629,0,0,0.919665501418112,0.9191919737386,-418.141584122917,105.23232652142,84.8459900468669,85.422570879333,-41.0480744100334,-33.8310472939258,21.1709024723449,25.040277513726,45.5542684747578,44.4845240497414,51.1266487395858,51.4568819718763,15.9279768440616,11.7430490438887,12.3911416304908,6.34990433577445,10.6018909464853,6.71295780165794,134.254060844919,140.830844844668,10.8146373368536,5.82333758156145,14.0936939781363,13.1193866142891,18.8643131906593,20.3416606461165,2329.1377586076,-1465.40622693982,52.4410342347063,53.4993176022182,39.7943084060638,42.3985831726565,25.4105786897802,25.7327779066022,6.74180305960836,7.60047798495118,65.658588617755,66.2078225831836,96.7583865800328,95.4619808881899,92.2548180976336,97.9866879293749,97.9684203227148,96.0840944405655,2.97608040258101,4.18502392642832,31.7517512610169,22.5758678216555,76.6287413073365,76.5165546886023,63.5791406117844,62.5726464115146,128.904428006916,88.9368039368039,76.0826594494847,75.2234382762379,44.4444444444445,55.5555555555556,184.440582794249,184.274531543563,126.436267606292,126.12615416537,184.948493764629,184.645094967051,41.6223732293288,45.2537548211361,20.2802593652499,22.1033296749775,21.6085844796056,22.8465895273176,53.0067225139398,52.9670561933229,33.9956403566315,32.912850301619,12.9825214759424,12.6344606170011,1.59374946988533,8.19815914558791,4.05713520213747,3.9548952928424,2.89978938033053,4.90379050411914,4.5401265692593,4.49432867135697,45.2537548211361,47.3915816515034,45.2790647289114,46.8919543476654,76.5217320781308,75.5766154954524,104.122199122199,131.776200340231,81.4971861552576,80.6383949283631,156.879948614102,158.044607699251,134.70716046781,144.669323033389,157.155679909822,158.310216753929,15.66,15.66
SS01,RMT50,4,STIM,50,RMT,POST,SSV,3,12.1607376772253,12.3660046924806,11.3838607150957,11.6094685936042,17.9858127328147,17.5667373201519,0.175542353973254,0.178155396290321,0.161516015403294,0.147584248514232,0.200881528685576,0.200703268045688,0.249152810084125,0.242743538822256,0.163618837662746,0.163146852618907,-21,-21.2,0.494794077784341,0.487363494949903,0,0,0.881167775161431,0.87446346860727,-0.5,-0.4,0.910152147562333,0.916097980355351,-0.5,0,0.787231678337487,0.785114834751997,-1.5,-0.2,0.829869332233733,0.825464457747154,0,0,0.932457690066896,0.932070806349388,0,0,0.927136924981643,0.930262426765811,0,-1,0.908725137304472,0.901842880458423,1432.7210518952,29.2423289455186,78.9519587147245,77.2250798393512,-19.8099378179789,-26.0592356154859,39.6537326257746,37.8936482356151,44.2802434721391,44.4248692139859,76.4770903339684,89.3204719142129,30.0141243727261,33.4664544248747,14.6073473960495,4.61140729959491,18.5322638586184,18.0924009480718,150.161486777999,147.602755002136,15.3351078264765,14.4259713897526,7.78290109691292,10.6225291588288,30.0056178274524,28.7838653016888,196.497039327614,598.490150922006,61.3944099220537,61.5630537135942,35.0246824193715,41.996295983325,22.3094001334269,22.3419597620269,14.3133495014258,12.0303737636065,64.3640089525382,62.7116652307013,98.5354627560624,96.2924043802545,69.304664061593,71.6207100550812,102.604977310338,99.8387692696947,3.7499795297774,3.77353708380102,33.8864300783342,29.0846927207796,76.5316163478977,74.5471276246821,27.320014994128,21.8400135283595,139.365487453723,137.369283570672,44.3712521525473,39.6862374251937,33.3333333333333,40,185.832455076661,185.898077841047,169.395766055576,169.540679446838,186.029254662531,185.970941290623,55.4436965425197,56.2467802957511,31.5546207151513,29.5538482867792,28.0981599953426,28.0027500977178,51.0112501189706,53.4860678176145,33.3077765298885,34.3647327890843,12.7713103678881,12.9643354727725,3.90943650812644,3.83538814415463,1.97261140690012,3.56754156770604,4.0545313389555,3.98035792639136,4.60931252462433,1.93180549453234,52.8982513143463,55.4436965425197,53.2812242863098,54.2239296074205,87.0832389231315,84.8465402680365,118.217245563602,83.919597031764,90.6137496755935,88.8290588933182,150.58797923446,149.770656214724,104.290866158882,113.323756421767,149.5093463673,148.64491543725,15.84,15.84
SS01,SHAM1,1,NOSTIM,0,SHAM,POST,FV,1,12.1308784890549,12.0719772763966,8.82086641083694,8.96366880364597,17.5668597535972,17.3830618149743,0.245273741847434,0.241653560639316,0.144607235632298,0.147257262660567,0.163516810435963,0.165054822921996,0.199190971685551,0.192434777039181,0.213275884096177,0.213842141460716,-20.1428571428571,-20.125,0.630854791453616,0.641452445941725,0,0,0.872369521058667,0.8685472756924,0,0,0.927022446103365,0.92851507853117,-2.57142857142857,-2.75,0.742747707473526,0.752586227512227,-0.285714285714286,-1.125,0.867476630488862,0.856287273783016,12.7142857142857,14,0.814716150326607,0.813581642895863,0,0,0.916488675773916,0.917271667948532,0,-1.125,0.848865933991781,0.85455205724763,150.816741532217,151.030205616684,53.5320311406681,54.3537815105759,-51.9173020019976,-49.6469065527803,24.9344850878687,26.069557007578,46.3520653385176,46.5381021445404,67.2986189714741,61.9403701410707,36.1216252129517,36.7293929211495,11.4478827079233,1.97685280634762,28.3659939326905,26.3921089333281,117.78863835507,99.0948694219733,14.5544467702955,13.5410658749524,11.8693877911074,10.8958277155922,20.2647095317336,20.5928451080168,-839.636780244498,-1134.143275965,48.4175447326437,48.7095730217805,4.15922875997537,3.90412361557864,29.2326045254868,29.3979467404826,15.3686508932994,14.8008186415819,52.637857489368,52.1099252989099,95.9940614717195,94.9129660846352,27.0344301979977,30.7542427834716,119.100952681407,117.516097652468,7.36119741118184,8.65398962511246,76.6993505330291,74.5938217729741,63.5032502632557,62.8735796917497,21.3366473839589,24.1048081635456,130.779139748143,130.903594068336,33.1211224165451,31.885666684923,66.6666666666667,66.6666666666667,60.2258720216262,60.6032298351733,66.0292611663254,63.5818742913355,57.1361036569583,57.1879371798176,38.0743711104557,40.9298497716662,16.1120857038852,18.4210863700286,17.8084284663239,17.7526899200093,48.4805609556022,47.3267228007058,31.5398846919695,34.5558020935279,9.63134221669829,11.976889479751,4.3128216194606,2.32668473403247,2.87534548497854,3.22477084269024,3.22608419415712,3.37617934916434,3.17598785015749,2.40540874746189,40.9298497716662,39.7089366142319,40.8417374702148,40.6308642787057,78.0963065642647,76.3677197128843,86.990118931763,113.340266645294,80.8164218721053,79.3731474895917,72.2710267200166,73.3156897055133,144.319706261348,150.214964255662,78.9576989652753,80.1350218615896,20.19,20.19
SS01,SHAM1,1,NOSTIM,0,SHAM,POST,FV,2,13.3608561748464,13.3480792678672,10.4117830290266,10.167513866345,17.190640103362,17.445272020369,0.213363876159565,0.221360223029137,0.163829415653098,0.172866072924777,0.165161805726014,0.16460518190548,0.197632057350201,0.203370779369154,0.207306531521362,0.211822233500589,-25.5714285714286,-24.75,0.514855730547982,0.49287285048503,0,0,0.820457228374414,0.825126499803515,-0.285714285714286,-0.5,0.926135721084939,0.923493561603697,-2,-0.25,0.834342026242063,0.821898836841421,-7.28571428571429,-4.375,0.841366347273641,0.823563334848327,0,0.125,0.847383083820911,0.848664255884115,2.85714285714286,-1,0.906399106161414,0.897923719762374,-0.142857142857143,0,0.85579966768429,0.857845075063249,208.547793798596,213.014376625975,88.2037355109467,86.8799604381856,-96.4543142668479,-105.718417171533,39.2400812227944,37.3096495204836,51.1190365873551,50.0712329395356,104.516800460005,86.7565118377848,74.6681856412385,72.6709208543185,18.7694663720846,4.26753424317602,40.7342360602612,37.0358225205664,98.6445241684772,95.1375287461945,28.9037645788939,28.9078344322165,26.3887972892745,24.1955247418268,5.79732481363195,6.07355805162537,625.010560919551,2006.79215895742,37.3588457306584,37.8292538799656,58.0632913288814,27.6520368173057,34.4586470500037,33.5991841412428,8.00517749529924,6.74580520510996,64.3826507234029,65.459212979506,99.437106174353,100.612010387378,74.7547739251399,73.304050253281,105.914507264783,107.806042229373,8.90953718202564,8.99745002827858,38.1029686727001,28.77199737197,73.2040437925156,74.4959808970336,26.7454157103952,24.0501561089631,127.081687164048,130.855836290009,37.0305386519166,39.981721120412,66.6666666666667,66.6666666666667,64.7310823087676,65.73912641114,63.7556219843965,63.738317342353,63.4558285525476,64.2729163155105,58.1405123356275,56.854600715862,28.9646592116846,27.9081789852117,27.473537955144,26.6603215624698,58.3336597321829,57.4162464943807,41.7749713123257,42.2088020224696,13.3653677155974,13.0342728247563,2.53666946276387,1.77206267247965,3.65194371411993,4.82791213603104,4.86529801284407,5.41420256770688,1.75045977032635,4.05170341403811,56.854600715862,55.7904983525669,56.7435864309392,55.386482581283,65.9930878882368,68.1728551800177,83.9645516805059,117.181587549152,68.6673522056982,70.9187422544637,72.6872705519851,73.9472457466562,130.00463239483,134.545811101044,75.8092921751442,77.289813422339,20.03,20.03
SS01,SHAM1,1,NOSTIM,0,SHAM,POST,FV,3,13.1178608270396,12.9446860396774,9.79925986740133,9.96893291429037,18.0298876338199,18.0051997669059,0.245057006047246,0.240336650297651,0.182253183694009,0.179130746534982,0.189985562217773,0.186023077622414,0.203357911869682,0.204777916726534,0.242098631525365,0.238573356875831,-20.5,-21.4285714285714,0.435650770064359,0.451524602154371,0,0,0.882002551208528,0.877434760299682,0,0,0.929807355649053,0.92756416260011,-1.16666666666667,-1.28571428571429,0.780072260024846,0.786966933310616,-2.66666666666667,0.428571428571429,0.866962607879189,0.851702085458848,5.5,4.57142857142857,0.855721988893713,0.868662317270683,0,0,0.895820457063988,0.893632974821578,0,-0.285714285714286,0.873033198060961,0.876771399916016,316.890607570776,301.004602283986,75.5779137724543,74.6963638177804,-59.2321127255798,-68.3594411639381,30.4347190319969,29.1178629510526,44.3166296345412,44.3837762876686,105.759037133453,117.781488281122,44.4567341795273,47.2202176232611,13.4694941181366,3.29175786051007,26.8775424970359,27.5806396523102,111.818048468282,92.6672685902629,15.7982536018756,16.2232658129582,17.4520234252592,17.4621553374314,9.06484589422,8.3613802945079,583.131129269788,774.032732322301,42.0884735461706,41.3244789715654,2.79301999039279,1.79850407608252,33.7610551261727,33.6339597267057,2.43425550845998,2.29363740490613,58.6206705796271,58.3700700878653,96.5179333597028,96.874351314059,50.8774258987283,51.9366373061278,108.319373496216,108.747151839942,5.46661201771929,4.40477294296242,33.2268829180585,30.4103030569788,70.0922929488275,69.9035782706595,24.1055484152265,22.6689248967315,59.5559337036033,59.634986221358,40.0746584618447,38.7612865116363,66.6666666666667,66.6666666666667,68.5226052147172,69.8243207892106,102.161209642391,90.4838354276242,67.9052129150339,68.4240667329883,42.9665300204767,43.7678702557964,20.3137340753208,21.4238069530923,20.5455135552137,21.8638888950557,46.8570200574772,46.1573895041743,37.9429792426978,39.1912390387128,12.9153807672111,14.0531105113186,4.15855065749462,2.71793099629218,2.92143660517334,2.27015406510878,5.00877303091199,3.76629351990931,4.07895485758842,1.95387467051401,43.7678702557964,44.6206620954735,42.6906735923351,44.9650376945998,66.0353413060503,66.2186514712982,89.5148118053738,106.586621604806,67.2273893112487,67.8400265825061,76.3418725418842,76.738669919077,106.847722121889,108.736750514159,82.5384545557855,82.5007457824475,18.16,18.16
SS01,SHAM1,1,NOSTIM,0,SHAM,POST,SSV,1,10.6821478914788,10.6237724376191,8.76833407683211,8.6864547926765,16.2905726475021,16.5559757648642,0.186386193076867,0.185989520781086,0.124088780127561,0.132388738985678,0.181132587382488,0.189994548856464,0.238174727242528,0.244121910744034,0.181244441344262,0.198619514157556,-18.5,-18.125,0.708210113529446,0.704915006913021,0,0,0.887934184292636,0.888985413611534,-0.625,-0.625,0.936377105617154,0.932732048834516,-1.75,-3.5,0.78150191925242,0.785572585681974,0,-2.25,0.860965640066166,0.8478124566674,0,0,0.925670448892157,0.930231873393236,4,0,0.90815117801365,0.898780001916247,0,0,0.901194809563459,0.891646170250157,134.336442907043,134.130667917713,72.7175424737828,72.859527505187,-70.2137491338272,-58.380263401842,37.6024489702222,39.330254628898,49.0832019365753,48.9124561042723,102.974977686669,85.3901482963514,59.7751026723768,59.3906990749503,5.41252607834266,2.1953487665334,14.6664176862638,14.3543916476854,156.011313470976,155.558780620254,8.82715302611172,12.0119192504525,7.07085541031524,6.96823895808388,23.4764761350345,24.4972190614048,-14604.3733395962,-748.024028279015,52.7338211565241,53.4857750247138,1.62783458821226,2.7177033719717,28.6746264690112,28.4952120252652,14.2437405337388,14.3122195086169,51.052013577197,50.9186482435725,87.2390530320417,87.6418207440802,45.2845323472207,41.2974946487904,100.109919157448,101.231627954154,11.9316418066247,11.6378349925486,42.4908448831745,40.9249460930037,60.0220063021445,60.3715340493323,13.9444051702184,12.3093179910638,133.319017962569,134.667197943851,21.5230994956528,23.1809362570614,33.3333333333333,33.3333333333333,79.4758445929893,82.0785555478223,58.0634477581737,85.8216924716035,78.3366865236245,81.118501181502,44.528854655562,45.2119663731682,19.7206606134315,20.1716304467413,19.9679875014687,19.9229250113243,51.8521869201673,51.137205460714,33.2014094452799,33.2785143880704,8.30449939511804,8.98882773526406,5.96207237346876,4.00789685468892,3.36096722923602,4.79540571937558,6.04102853247018,2.22617508056591,5.95945987192588,4.42725169695255,44.5604705765222,44.528854655562,45.0143828769054,44.8772694033038,86.3144342576859,87.2216273016147,55.8023000685981,73.4255012681363,87.6952873475324,88.8294308286797,68.2066533515495,71.5012381399326,137.185984160296,133.168839506657,72.3970856209819,76.0110459347897,23.94,23.94
SS01,SHAM1,1,NOSTIM,0,SHAM,POST,SSV,2,11.3066596316892,11.1337678336475,9.18714462379573,9.35910488641401,18.0553083906387,18.1197559399299,0.177642124999114,0.181042170353483,0.13404309151591,0.144183683694538,0.148000454381611,0.145867100241717,0.163748087381064,0.168242161561399,0.189122904511646,0.181479531886304,-19.5,-19.1428571428571,0.523844702748471,0.546278176840825,0,0,0.865187318046501,0.863597779519937,-0.375,-0.571428571428571,0.934772634597341,0.936716391301634,0,0,0.817393099459189,0.81488431231966,-1.25,-1.71428571428571,0.879097866473344,0.872028025555852,0,0,0.888229153106724,0.889069805939975,0,0,0.921167752776028,0.917122157767674,-0.75,0,0.869219798084235,0.869906673333638,207.565991127724,209.06534343978,75.4351642918542,75.3593061496931,-65.0012912114255,-47.7981353074723,30.5642727691035,34.4316884114504,46.8074318939194,46.6638478014745,62.9898765516684,69.4809112091812,49.4778164812052,49.9124534875468,8.49385779999736,3.43484060948414,33.1740180387172,35.7870588539736,133.845506041741,133.568524319022,22.3597572625404,25.1142311874728,7.40546905383889,9.97908981502329,24.5093036434305,25.1566763166887,-414.960870353925,-362.374915724875,51.4914858647728,51.159906629156,2.28441348115397,1.83847727205496,27.9928736005116,27.1378560120891,18.8526607240789,19.4978200071629,65.675125654553,65.5653376589461,96.8628445734614,96.151029869321,73.1783957981663,68.7646855294459,103.693603551543,103.924588299352,8.21626434168457,8.23276847855476,32.231486500904,23.9295322456854,73.1262975849376,73.1040712640055,20.4251980412398,24.7003375850215,125.816300624308,135.973516617562,31.3787551032908,35.4536425900707,58.3333333333334,57.1428571428572,66.5766527692177,64.9882176218165,104.501765976933,97.150081778137,64.8968498488183,63.3817538951286,47.7211036745297,47.9244673165065,21.9179734517101,23.1888324043451,22.0111610727752,22.4584236226691,50.2605511944719,49.9186492793617,36.9311790313241,37.5576216844634,10.7196184722825,12.1198977730056,3.79074101345804,1.6459381518278,3.10813524190707,2.78394805048364,3.78818416240646,2.09772080394672,2.53433023609843,2.78054901265435,48.1243850924194,47.7211036745297,47.6693426749225,48.2600650661566,67.5458112944905,67.5135949789132,68.7279272269114,63.3591472334251,67.8614426559874,67.9046813439785,69.771703781252,66.9969130533159,129.703992209547,165.463311800939,75.2666773975545,72.177455125175,21.84,21.84
SS01,SHAM1,1,NOSTIM,0,SHAM,POST,SSV,3,12.0470306066745,12.289028122013,10.0471811576737,10.3178846853521,16.9185189009278,17.0641517790538,0.233784200886643,0.223712911572622,0.154829312573923,0.152808491790238,0.146587054209347,0.146019746601854,0.175407677889039,0.174017370004667,0.187475751011599,0.188609903664429,-21.75,-22.75,0.53787874493609,0.538166789057065,-0.125,-0.25,0.816408972261043,0.80953540076929,-0.625,-0.125,0.931910521606905,0.931722039292494,1.125,0.75,0.763813506837921,0.768855136800296,-4.875,-4.25,0.848772306985844,0.867693442769753,8,8.75,0.821638206087129,0.815398571283202,-1.25,-0.75,0.885800082442023,0.887019711041639,-1.125,-0.5,0.863565121946421,0.867633058699249,207.549229035065,208.554505999783,77.2441531752919,77.1724715455861,-61.521365596587,-59.666033350969,33.5534964432791,34.2472141504681,56.3344729218997,56.335905289585,41.6509541796628,41.7982726183114,55.7962203782602,56.0316461099872,15.0394250042026,2.53093896392914,27.6028614245638,27.0043492589972,94.5088396302465,85.0765669282564,18.2512986788972,13.3175001652427,13.6695628336653,13.1706836293373,17.5178413424807,14.8127125686687,-36.8007274836449,-1193.45581430062,49.4639024467533,48.4368304013706,3.91160049866891,3.20146028087407,34.394484052625,34.6310809337363,8.36924761646083,9.71413999704948,57.244816324034,58.9257988083067,93.195071922979,93.7387814401667,64.5759353404082,72.0686775068589,101.901918590891,100.416318339888,10.0910337585398,10.092101967647,32.474585157467,39.6151103909597,65.0598922266084,66.409312084308,27.6098930089135,28.1209849442255,105.162399592566,117.43058762782,40.5129194092964,40.8192186400257,58.3333333333334,58.3333333333334,61.0546944271726,60.5598323258315,71.7327603081536,69.2912903775313,59.2594634464718,58.9726219947979,50.1995360801629,47.2590756216942,19.7186063913385,20.4918190605606,19.5507727345197,21.0486831014504,56.7920525145513,56.7904340065904,37.7741359733741,39.545778647881,12.1423368136041,12.4555076194934,3.55710684006578,3.32507075844676,4.23375283964423,5.27264074039953,4.91607082820734,6.06880375540565,6.91635015713271,3.34595552362911,47.2590756216942,49.4963560304692,47.2481054311112,50.0710238482708,67.8887944195401,67.4710991543506,86.1129853962822,67.7976761743075,69.8834290804113,69.5812148126148,74.420442535323,75.9861987348281,132.161095978114,143.132196337016,79.5542535017664,80.9638138947426,21.44,21.44
SS01,SHAM2,6,NOSTIM,0,SHAM,POST,FV,1,11.5444361391321,11.4310127644106,11.235072369415,11.8045933458785,15.7301449878217,15.7737838025008,0.173454599540156,0.167720638079847,0.0858249993658851,0.0863210988308604,0.0443170836491708,0.0474699891514872,0.0444236040338196,0.0434419292305057,0.0243990527631118,0.0249119848888242,-15.2,-15.5,0.777782330497747,0.786493247163226,0,0,0.852731207814957,0.839385061195128,0,0,0.956179428824894,0.958018381640975,30.8,35.25,0.603909404828851,0.610209642909082,0,0,0.853118481320583,0.866294335763736,0,0,0.932934797733858,0.925186239079535,0,0,0.932253265832753,0.936964774741354,0,0,0.937673489445477,0.935043994602196,-229.179798885451,-142.474402378621,13.697163218776,11.2263895841357,-27.125067323154,-24.3117401868034,18.0047914399234,14.6888810178732,24.727230245403,24.6011438056893,21.4902404651731,21.899469419759,6.32020023775076,10.7760699824118,9.8567408396973,5.34638282983855,71.9610934316269,78.3194811892474,150.862990220788,150.686813186813,36.4582184809026,44.0006092397054,22.1188176310081,24.3474939144375,12.9905594404541,11.2529434683279,-141.018180428052,-146.81274325994,35.4466578644408,34.6731401754222,116.117126275734,192.116104814365,19.7689638605669,20.8083532912781,8.53286183077684,6.62278022192691,43.7845448840991,44.1606485033265,77.5258576002661,77.3238125832427,19.0548350322902,17.2578499034541,90.919423500435,91.7557741929145,40.5377806148138,48.6721369587579,21.2765773561422,19.2833029039925,54.8485222906293,55.0914151569729,18.2908034090001,20.3812149606069,45.7443210384387,23.8828502415459,37.6418812048515,39.8394924413295,66.6666666666667,66.6666666666667,4.21632538054147,7.78384179897451,112.262969463299,136.500872657247,5.18731968489763,7.12534659133999,47.2047736834204,49.4145568228479,27.1786679059398,30.7408672763216,25.432081741333,26.3067610955096,49.0261902670329,52.273088010557,32.877940198306,34.3934016280282,14.8330098185316,16.4733916444428,2.95782895691986,3.88862310851307,1.45667492225838,2.16462083757133,1.86719832041493,3.28629712640514,3.75445971917596,2.30987299722892,44.7535775731608,47.2047736834204,44.8746071542758,46.7381323045184,11.3185838623837,14.8935845499025,105.851851851852,156.999356852633,16.097291137137,19.0864887097955,34.7426117812371,35.0759595515437,33.9477124183006,36.7647058823529,35.213201002214,35.4476975841533,10.5,10.5
SS01,SHAM2,6,NOSTIM,0,SHAM,POST,FV,2,11.8571821946124,11.6110668608893,11.5651722094503,11.5155040074115,14.3832753925535,14.4754909148686,0.163982271680039,0.169857626625913,0.0927979925854565,0.107920894471976,0.0535234358109051,0.0513073766103212,0.0543764249984063,0.0477428457217509,0.0283578087193578,0.0281031319083478,-16.25,-15.5,0.731365206373768,0.747107194963139,-0.5,-0.5,0.828542569714972,0.830910613457083,-0.25,0,0.935925271563446,0.934617818160464,37,54.75,0.6197756630625,0.5593191819808,0,0,0.882744205722231,0.852600917272491,0,0,0.906626013174904,0.913347254352428,0,0,0.92099891772586,0.930000438290932,0,0,0.935730428137563,0.940818739497651,-378.080641932317,-409.57796000638,34.2258950565347,32.7722020062144,-29.1261000130053,-32.1123358919431,29.8843498552786,30.9089711119937,25.2376937489354,24.8341128164592,24.7023600569738,24.0548929692678,18.9766110804231,20.6757427171661,9.42806511003874,5.70928329463708,115.257490238508,100.675488097695,163.740067765121,163.638995120952,78.1752011886592,51.2113900949441,28.9273748541666,32.2959060235748,14.1621087550471,14.3140940477411,-131.964438548542,-133.708560489679,41.2758641038444,42.636878685728,4.35697692091554,3.82552617814769,23.3997155049787,22.6165074849285,13.1222955612772,13.3368849093923,30.5788150058166,29.6740242113094,76.5936959547977,76.3854304061304,12.3322604693972,39.7246797024686,92.2137909663345,93.4188612138825,4.67082428114411,4.37162718979431,25.2636280994326,25.2062563629728,44.4852408700862,44.4172718553578,19.0114121476886,18.5321430985464,34.7985347985348,34.7985347985348,32.9062505125355,41.4101860632148,50,66.6666666666667,7.70547097182475,6.1205459867044,76.9149028830242,128.817204301075,9.09050160193281,6.94569462992028,38.0267230861738,43.3512968609273,24.8113868044843,25.572429719789,24.6057840466226,23.2282960463421,46.8493508548,43.0863550330148,27.00725263398,27.4882551739213,12.0691013274528,12.7956862487238,2.71797414700453,3.13234417455297,2.86984546115736,1.15246518980344,1.62443966314303,2.81597103055805,1.6228821565802,2.0220506944284,43.2277583599811,38.0267230861738,42.8831092742014,39.5988896748243,10.7536039326812,5.77972182091511,140.566553974369,116.233940253115,14.9067472405477,9.90571905680817,40.7843733695849,42.8450365413304,82.2515527950311,87.0909360628987,41.1054948093789,42.7803877458202,10.63,10.63
SS01,SHAM2,6,NOSTIM,0,SHAM,POST,FV,3,11.2791229947172,11.2622290137187,11.2244596213251,11.5237224648054,16.6236678303508,16.4099315326379,0.208680713264934,0.221054806759637,0.0552183717117524,0.0549272858437315,0.0612156823643388,0.0604526546404632,0.060689030470291,0.0610743511708499,0.0251627272359226,0.0244611231020911,-11.25,-14.25,0.689178142516365,0.678791949621855,0,0,0.837743042365578,0.817320569374956,0,0,0.92447661451326,0.924818712804826,42.25,42.5,0.546217829530521,0.540037522286513,0,0,0.918165919865139,0.918759351289515,0,0,0.907101374797134,0.91153556663692,0,0,0.905840913103943,0.90464183902317,0,0,0.932544141797903,0.929326594390895,-994.140797933039,-590.437897416609,50.8004007172637,46.8550534840291,-28.9057353030566,-33.5262657248517,36.582546945999,37.9841153919456,37.2113136979897,37.2629575042987,52.5977570173595,54.6919051200532,18.7930533613634,20.0951093884569,11.1147760639024,3.91194392980889,51.3126300706807,44.5019267536562,156.413690476191,156.787226534933,16.4109599027488,17.5713824140713,24.7200650737462,33.9200970728051,18.8068349465067,17.6888359292578,-118.655381662806,-120.562550407646,42.4860662204273,42.5818328091593,124.724919093851,109.019607843137,18.7279085326846,19.3934958115218,19.2839548317308,17.4634483021219,39.0811318809763,38.3350123846507,87.8432597872264,87.436372849181,21.4815021043491,26.3992379119283,102.968260287694,102.307757773982,51.1838786664618,53.3770207050068,18.6391752577319,16.1714976752571,53.5633268622991,52.8851742336547,7.97713972536783,7.29491804833466,35.0840336134454,35,14.3150690172325,14.9500916612724,66.6666666666667,66.6666666666667,14.0350287134212,11.8619845426388,178.304931539189,127.873334395073,14.8470540669367,15.4212807709241,40.7761208054884,40.9596457439597,22.957627602618,24.4737621402238,23.3702391913918,23.4283596906842,46.1731748844033,44.6861442408754,28.2223391596292,27.3725914983155,13.7119245065072,13.1324746611867,0.591084601862301,3.94134160527563,1.81028351069818,3.85244904097272,2.00284907314993,2.95884316107031,11.6645085514515,2.76046824950951,41.448479247241,40.7761208054884,41.2566420035011,41.4070808319694,14.6720382733351,15.0320265662918,142.713585434174,114.357134974064,19.3350048004173,20.1953100756839,31.5605740866592,27.7992886997779,24.7619047619048,18.1318681318681,31.1422074810163,26.6991859037957,9.88,9.88
SS01,SHAM2,6,NOSTIM,0,SHAM,POST,SSV,1,11.250922406505,11.3276570310079,10.9303545497728,10.6953519646788,17.9960064863328,17.9163713548765,0.111874213472112,0.112406914483734,0.108675794091231,0.104667600769443,0.0459703938404149,0.0491190633679223,0.0581050536765962,0.0510548312337762,0.0132704383594851,0.013641898410413,-16.8,-16.6,0.66580727172829,0.668058571921628,0,0,0.864515452885978,0.867696411347398,0,0,0.937047917879541,0.936338117945894,-0.6,-0.4,0.761238955539969,0.794589844274525,-0.4,0,0.846185248903619,0.835194292930736,0,0,0.907954397900686,0.893383999541465,0,0,0.907434270534056,0.896054609812604,0,0,0.939250287436482,0.937049689801375,577.257954682505,880.060723231302,10.9411429447361,14.1872362888267,-38.0697274256359,-40.975648810579,24.4293773153168,27.1519847553304,36.7362800396147,35.821004660764,56.6015643846241,58.0796804436984,18.3977786541971,18.6632857655118,15.0500651013217,4.64913096973645,134.93809367252,137.954254731204,152.624680968476,148.000921275257,126.196361378769,131.418323089848,11.8375892365428,11.3146692031485,23.7595468056486,22.5284259490341,-141.127218375565,-143.055204841185,45.6516617418849,45.1514271745133,2.75587313437258,2.75612448312385,25.0978892112924,24.5034177126313,20.7910589657991,19.7378481086202,58.5926366080204,58.0076632927497,98.0534109848947,97.6119344908081,37.492013589628,33.5387921812573,111.043749230874,111.099735411782,3.95176781569593,4.66963083827213,18.2760875101028,20.4903207691292,71.531944848613,71.2521120507485,55.9229951251839,50.8795117792565,55.6590636254502,57.9447779111645,75.2538449634828,72.4721807575278,40,53.3333333333334,29.2202609151406,30.3980162805294,30.2894491129785,39.5966386554621,25.6880242322966,27.2277183068135,45.5014632091225,44.5597000522204,25.9744492631224,25.5145497252639,26.3527781476328,25.8406219957184,50.5297995351641,49.0842585858087,33.8038710112466,34.5465821683039,18.18902864541,18.7499336001063,2.44251964074706,1.98770952993617,1.94680848248627,3.19299680106235,1.53743610159331,3.82241173936906,3.60228754939797,2.53938304524084,46.3974716911419,45.5014632091225,47.3763839097087,46.0999051890374,39.1322275968938,30.4481918129558,90.649654439128,111.13517468447,46.2550296703691,36.7127037397639,5.82174907465667,6.12938909436747,73.9218130797078,71.1957671957672,8.83611774212729,8.18174000082716,14.12,14.12
SS01,SHAM2,6,NOSTIM,0,SHAM,POST,SSV,2,12.3680753404373,11.5103022766785,11.3482914178354,11.1092203968335,16.5001816770349,16.3805825860615,0.113024469159537,0.112294388767953,0.0539118715497277,0.0503316766360777,0.0470856872325741,0.0464931634361437,0.0627625436123904,0.0564974018600193,0.0155097958686213,0.0153078926245462,-18,-17.6,0.69996919792347,0.745883199385952,-1.5,-1,0.823665648026859,0.838843938553945,-0.25,-0.2,0.959499952530253,0.96013481014099,0,0,0.892238763871353,0.880405988954906,0.5,-0.2,0.854911107985502,0.88877311225483,0,0,0.87980589902208,0.886190502663095,0,0,0.885814271486726,0.88983933911197,0,0,0.900829605981832,0.907669275959728,-339.672507015018,-410.616425477092,28.5679083090428,18.9365633721355,-25.8577122688691,-28.8237335025859,21.4132392758158,22.7617064690178,39.6821786722453,38.7692307692308,65.2476128915198,56.8215638414563,17.5911669091017,24.048376144489,10.2515642226136,8.25779680750322,149.998012404927,149.749917244554,84.6125541125541,162.243642759173,147.421013882059,147.233166652339,16.3716326335916,9.36289547356105,18.3087686633762,22.5090702258569,-125.397417332193,-118.803721228661,41.4602952746374,43.2411507835482,5.74272568643573,4.16919376866502,28.3218916857361,28.0614559976649,16.8245438830131,21.7314563100021,57.0078699746924,56.3654857857411,85.0419875792006,84.5044481645696,66.9609116993295,65.8573819874503,89.243012196049,88.738871222952,2.12955166160988,3.64291775673889,59.4302505242247,51.4964194964196,65.1368025600151,64.8270505326365,20.7181013193452,21.0715512315241,116.846850174643,86.9725319626771,31.335379885543,29.8937058200812,41.6666666666667,33.3333333333333,26.8147329800006,27.8839436392197,106.190476190476,99.901147396293,23.2950823103161,23.8026046452005,50.8704985663017,51.3236138168606,29.8267467392052,27.4753910926262,28.1919655273938,28.343277544018,52.4639597707443,51.390098198638,30.3652778208405,27.7282562528929,13.7221545169417,12.0569106849157,3.77433239059075,3.41798233930039,4.2515586372734,2.87988296269482,6.42987783432313,3.42125161222346,1.78181571355443,2.76529016683716,51.3236138168606,51.3979446318761,51.6852360950283,51.424569961404,42.6529945549687,36.9360657786161,185.230991968345,84.0215083162452,50.5637905176482,43.8142483433345,6.09023990758647,8.25533742308115,163.243550013678,129.71142618849,5.31348415534482,7.49784734403611,12.87,12.87
SS01,SHAM2,6,NOSTIM,0,SHAM,POST,SSV,3,12.7865178928258,13.4294320697684,11.015701283249,10.9552743650385,16.7663285399511,16.8793329736881,0.129391749843028,0.12381924217335,0.0525429851850922,0.0587113017391224,0.0428339619262792,0.03928432533316,0.0486686736748821,0.0463086700236516,0.0132501747901519,0.0143900919838767,-15.6666666666667,-16.5,0.626525885478029,0.650772515676825,-0.666666666666667,-1.25,0.848112071219152,0.845066779867214,0,0,0.933734165346996,0.941186202300562,0,0,0.865607042671138,0.849695522971295,0,4,0.86041458188345,0.833173941066732,0,0,0.924956257841751,0.940173430658121,0,0,0.936559876665893,0.937803753790192,0,0,0.943305512468385,0.941505226346442,-1528.67872340154,2427.184065905,29.8674154098095,29.6498764459074,-25.8721410053693,-20.7072772139413,27.6703781902155,24.5006407721745,37.0401434264362,38.3532034003732,24.69774224282,24.3219119791688,3.52606169965645,7.68169993031225,5.99425416209674,2.25468975468975,150.73990916225,148.459157606649,147.009780343114,159.43722943723,145.913733399108,142.401098541718,19.368245520056,20.4414603525368,20.1320158226683,16.1778489874809,-168.96918961742,-152.219609709941,49.7298291576365,43.2866145332454,1.4336917562724,3.75481570927491,26.2844208148027,26.7241379310345,17.6005716905635,14.0783751953402,56.03451202192,56.9388329885614,96.7468459674598,93.3516823947129,30.646209468082,37.265828802785,109.646025228463,104.213294144968,5.13496739166163,3.5534742388984,23.0749063670412,33.6726998491704,68.3892549519073,68.7397937195866,14.1153977634852,6.83052364571684,129.717206781427,110.595826192156,17.8275883727095,18.0187313170168,22.2222222222222,16.6666666666667,11.8730190537127,14.9483161102347,75.2380952380952,55.8333333333333,14.685759782301,17.5251607587167,43.8552697431363,40.2806191956562,25.076624414754,22.5340741258517,22.989365418135,24.0747715506169,42.541089706867,46.6458565729618,24.9663965380018,28.3083631378969,9.67414328312791,11.2106034555548,3.59858440952549,2.41795741819361,2.3241543665546,3.62536355299278,1.84778993154306,2.5409167775998,4.1925331887127,4.17664277652147,40.2806191956562,46.0186401719963,43.7665991756366,45.9269197958853,29.3622346813391,27.9996174668855,146.175115207373,62.7329192546584,35.0105468898278,33.6064541338959,14.2264303247427,14.0860600363908,70.2140672782873,104.195930966059,11.3773193673418,14.1387603480576,12.97,12.97
SS01,TOL30,2,STIM,30,TOL,POST,FV,1,10.6198979922647,10.6801374129627,10.1465802221699,10.1849366467072,17.6719974298653,17.2959525905351,0.26034700914341,0.25808940103486,0.146547785687892,0.14448582259343,0.159287879201269,0.155954288685722,0.205601603418652,0.203083280940524,0.173729265824649,0.183788323900726,-22.8571428571429,-23.1428571428571,0.708522027977228,0.71005733140407,0,0,0.916557262173124,0.912869931136624,-0.142857142857143,0,0.918911583933586,0.915967445973191,0,0.142857142857143,0.771013844824317,0.774365397602682,-3,-3.28571428571429,0.863136600118607,0.854239405138866,0,0,0.897820331011506,0.899727489933709,0,2.57142857142857,0.926819850954781,0.923886662722916,0,0,0.918179864217721,0.908641959918411,345.114147029195,331.841352106669,50.9659305014032,51.8151414917619,-22.872544846781,-9.81955789366735,34.3701141166439,34.3165759358519,46.8696041831313,47.2721204708782,71.9574080595213,72.5885934051129,26.5947112285228,26.8607389313392,14.4572767417034,3.07304601093341,27.4463856813012,31.0637861929409,124.057982214684,131.666208559532,12.8581101032151,15.2264521803374,4.94352263628188,1.89609461422112,29.2386317889229,28.8856946608545,263.705959250756,304.085674054916,55.2744573884939,55.7612921366292,30.2103809098095,30.5465357271892,24.1596671452218,24.3676360310532,16.0644399848435,15.0638797518094,58.8710893291706,57.2580557321803,100.282867029442,99.4357125769518,28.6375738671067,26.7680318555138,116.933652672436,116.234643124045,5.0831673183481,5.4055892605395,51.490452524266,52.0876379770751,71.8700119934282,70.4709989986047,15.6444747725841,13.2900080350224,105.469791295034,122.084840185144,24.3143776256766,22.5749001585666,47.6190476190476,47.6190476190476,34.3950711717594,34.1649607578411,82.9740853745992,97.1805656884424,34.7544497617669,34.2402459165007,51.6862581550443,51.7719831723834,23.3413570248146,24.1779591734303,24.2342356895457,24.342201456604,51.5765905550292,49.9391415934363,38.1699138499126,37.1077726224236,12.0070612994079,11.6927890504411,2.24650711500878,2.64636836662675,3.16965352536039,3.12507094822039,2.20149282287416,2.03296142062641,1.00956957343207,3.63669977986164,52.7671090159958,51.6862581550443,51.9730927466392,52.3200151558142,58.1175039227879,56.6547036213915,103.530735139237,99.2183543855108,58.7081890228891,57.7106317470483,43.9265770933419,45.4298084582173,75.8630088905317,53.1739903168475,41.7061166835187,43.0251365779198,17.75,17.75
SS01,TOL30,2,STIM,30,TOL,POST,FV,2,9.97944532422144,10.1211906143887,9.56207242436611,9.43819418340545,17.335837801659,17.4494641863769,0.256144204232189,0.258309299230316,0.117111772967127,0.115918652376288,0.170745145037177,0.181284703703073,0.240564049956735,0.233380853680463,0.20196427933106,0.199274757584657,-22.625,-22,0.736410720990646,0.745797340878956,0,0,0.92899362294145,0.930202404091984,0,0,0.924648414186575,0.926317194135363,0,0,0.787037165355837,0.786921524419069,-2.25,-1.14285714285714,0.873320821744015,0.881164961716798,2.625,0,0.87550936325794,0.858858888234481,1.875,9.28571428571429,0.896715918976372,0.908671802710778,-0.25,-0.285714285714286,0.881662440305746,0.875945425690918,167.012919846297,176.981183013203,57.3788468339885,57.389317870248,-33.4770625092325,-43.9382485177521,45.2056589429962,45.7496433722652,45.2100032112186,44.8862677574324,115.00427467759,106.157668055201,42.4273830298784,40.6452097227843,16.3048051568268,4.24062698699125,24.1529930900684,23.0613129143741,138.338004074083,138.907669694819,12.6557403253537,10.9064623310625,5.40276812643579,5.17677553653268,25.9191302386123,25.7327987939087,206.54693674242,213.035089588719,53.9140850981953,53.8837702639473,49.5601557086793,31.3999146818771,25.6666866210102,24.9906811386049,13.198118492053,12.7371791310153,57.147080946887,57.5398819565604,99.963384475959,100.206977780906,31.9840731193402,30.9603062983743,116.026914931501,116.459454146128,3.49753604172677,3.36093420893398,28.4607576400998,29.7836762609225,70.4822907548293,70.9313722480908,9.82229658035994,17.385905352254,135.497897101894,135.668815409288,13.0726010664651,12.2134618715568,50,28.5714285714286,32.8642941067171,34.0531781242911,70.8784471906731,70.1562132065329,32.4986658038724,33.4102034022133,52.6927491572923,55.5337275418877,26.8436994124318,25.8449941953844,27.2820547499336,25.6017011312301,52.3947020027788,51.3553771149354,40.0066805808453,38.2773156363645,11.2884921715558,11.155275106215,4.24901972660254,2.92795016023352,2.89076050678637,2.48167003498781,3.71753790744455,4.45903226453097,3.60876555804627,2.95500117104543,55.6432936504338,52.6927491572923,55.2703399941154,52.8294534938029,54.4821744386101,54.0551748658212,89.329672399939,92.8086875397428,56.4554268349348,56.4526676996544,48.707703672533,47.93657186374,111.963669367098,112.478721610524,45.8342761741911,44.867419691517,18.53,18.53
SS01,TOL30,2,STIM,30,TOL,POST,FV,3,10.8349188809595,10.0495259046923,10.7831128694088,10.7783483597774,17.5107302253985,17.6285648411172,0.234947813320043,0.239683242530274,0.157619991231025,0.154122808622003,0.156799641974595,0.157753993319767,0.178579589627924,0.167873779773579,0.202579435286889,0.201727038411936,-22.25,-21.2857142857143,0.632763459145401,0.706031213393856,0,0,0.913716932435394,0.916312679125239,-0.125,-0.142857142857143,0.932391981450747,0.93035842733847,-0.125,1.14285714285714,0.770906136890912,0.767682020348781,-7.25,-6.71428571428571,0.821887045094583,0.838384310096852,0,0,0.865535232663092,0.862451750219396,6.875,6.57142857142857,0.872225615921618,0.887138879489351,-0.25,-0.142857142857143,0.879974353845272,0.886496739458217,360.556689909904,459.030255839217,59.7673961671299,60.1377233624635,-42.5234231485042,-25.1314855621925,36.4500924883991,43.4410368354938,46.0529318016199,45.1961877243142,147.290058997637,92.3222339488281,29.8552781138356,34.0690343077378,13.4388690868844,3.35963205586421,24.7559801688942,26.716228670916,129.739328462419,125.404492262878,12.3810665241384,16.3891360464315,5.66631121090955,8.24274656863111,29.7871664991452,30.0898297550443,179.518980018107,194.644715959647,57.6798462321919,60.5883052588375,7.00025642914293,6.49753915705516,24.5754795109616,24.4922301326385,17.0718311312626,16.4021207401434,62.7532971136351,62.5495259305215,100.259794631537,100.608415330974,52.1168702631723,50.2237471894972,112.055805922995,113.339462980913,4.91576122439162,3.71045160873262,32.1883322307721,32.2612874527455,73.1187540593538,72.8500438764776,19.8439996322922,21.324642640746,132.891487246326,128.834588061046,26.3818694623354,28.2086720615108,66.6666666666667,66.6666666666667,35.7096669436912,36.7824063444624,68.2538184782559,91.4818187008508,35.5161563894214,36.3399113081012,48.9992078772339,51.6346455282784,24.6827805211159,24.4409110163676,23.5204995463051,23.3112239842776,50.9995495231278,49.8186325831652,35.8949157011556,35.6428793263626,9.49330958454948,10.1787349251233,4.27153355530984,6.70179767100275,4.70523979480539,3.35178822885249,4.25615912760082,4.66541199945667,3.75163002783238,3.46942760912279,51.0692037261325,48.9992078772339,50.6321476303155,49.8563238453164,42.5252410681897,38.6623138634048,48.1941519518206,35.3371987088384,45.788923662509,39.6252134477455,56.018468059663,57.1681786743219,55.5176902536716,59.9825408236623,57.130957162271,57.6987361499544,18.93,18.93
SS01,TOL30,2,STIM,30,TOL,POST,SSV,1,9.22978660167182,9.22640200963566,9.20003302693876,9.31996318988827,15.9429862136476,15.7333712056592,0.294216223579314,0.286653663802095,0.134608397777982,0.125947108830318,0.15998911291555,0.157115565481688,0.258226130327994,0.238040906099552,0.207002273852111,0.201370917555563,-18.7142857142857,-19.375,0.794874203204743,0.770372839365902,0,0,0.952765863756812,0.949820493502351,0,0,0.927931223844826,0.928547999443533,6.71428571428571,5.375,0.721284835206296,0.726964689976276,0.714285714285714,-2.75,0.831096305448011,0.843063514438371,2,6.625,0.808524214347479,0.810696973068593,11.5714285714286,16.5,0.862752866979538,0.846335109542198,-2.14285714285714,-2.125,0.840553004705291,0.846881413041235,90.7777787312535,82.0073948615176,53.4284508345864,52.3432833148193,-56.3226470129536,-57.2903666744408,51.554522457068,52.1383312334779,42.6227002974028,43.023199389817,84.4374107145594,98.177418250462,36.1825377306485,35.7062895174534,11.9199432041316,3.36473197759221,15.6385263913778,17.4776772241933,133.315394000523,118.356546956055,16.4580421620598,10.0683059135055,13.3456963514143,12.7185688511034,29.5167029087874,29.6595619362321,144.957610963096,153.080718577052,50.1020393075741,49.4227407682291,29.6964261759379,27.0657383470132,20.2328502985894,20.7216575980043,22.0125311745649,21.6041333033929,52.3992687498708,50.5934823886154,95.3168408544092,92.6198146602837,44.2881610481049,44.7306649956071,108.366227162651,104.733436965465,8.04174260550508,8.51628077513652,36.3271338471149,29.6254829724306,63.9753217037156,61.8382383258599,29.0644704423819,32.1775239360329,138.045490575708,118.154225654226,29.2123420674053,30.4492407667222,28.5714285714286,33.3333333333333,23.1293310522243,21.6230242731094,79.7464649894444,85.1203786133777,22.1682112700858,21.1556125043943,32.3314590396005,34.3762045777172,14.6331301424895,15.5594978757269,15.436087702388,16.7525412184398,45.6163084370646,46.1822767986906,18.940687972027,21.80444571315,8.17515843035359,9.79493941502695,2.03134252142466,3.19116264963521,3.84038553076195,3.4055017574108,4.08134898148258,4.41167818167144,4.09748437832961,2.51993943692125,34.3762045777172,35.4873816952557,34.8637917314217,36.0006204444408,63.1450764664419,54.6201952418395,109.826038677579,111.975435858445,64.6892235110414,56.3864928585392,54.7591904022784,53.8205511897757,63.4220594220594,62.9405049141891,55.0579759711471,54.9070849493384,21,21
SS01,TOL30,2,STIM,30,TOL,POST,SSV,2,10.4380303411127,10.1820037091722,10.4668996984762,10.6190817113872,18.1576609266315,18.7148554802724,0.233744047260784,0.238978111581319,0.128840721532444,0.121207089258894,0.155640532174431,0.15626034916025,0.149582114571136,0.148058024468558,0.191359139452531,0.189700176078142,-21.5714285714286,-20.875,0.665580769035315,0.677342720805548,0,0,0.929120208670682,0.929804355448136,-0.142857142857143,-0.25,0.926682932570192,0.921127069707084,9.57142857142857,-0.25,0.789672211853337,0.753641502520316,-5.28571428571429,-6,0.849850311651422,0.852854599228302,15.7142857142857,5.5,0.814447311585256,0.813562444124123,0,0,0.897923120596545,0.888684057723131,-1.42857142857143,-1,0.83855143308883,0.845962961848384,365.358414956237,339.545909797909,47.9992271843116,48.2857516496499,-29.3473785949203,-28.4537425489119,36.9090262462644,39.513444111261,50.5479560001185,49.4210139274123,21.8789728299209,22.6547960743353,23.3424912571676,24.8378551655584,11.4299549128051,5.66601288081438,24.040961694686,26.469770141094,124.779137811277,130.007845304209,17.8656545909527,19.2476549111033,13.4424627033305,14.8658231759303,32.2657147967771,34.4753128828137,170.714860668437,216.785881788143,51.6864286514606,55.3305833557112,5.17408533520613,4.7990716151897,27.848217978615,26.6937262418349,22.5558951915023,23.5385116654869,68.6894121733844,70.0684394338872,105.441358367174,108.468226161082,67.2221442142186,66.8722533363272,114.811508445581,120.070888803932,6.31451672153327,6.22208083424083,99.0084183827089,88.7961933097139,79.0001390901272,80.9804184057584,28.7086772195605,21.3704227466656,118.7369076893,106.166177848066,23.8205562849337,16.1979021186405,57.1428571428572,58.3333333333334,25.4588029824404,26.2612917876589,111.720257485614,101.233084214285,27.0442842866303,27.411988040102,47.7470393721523,49.2529001899066,23.9750120420278,22.8783435562344,22.1767577258856,21.9457418437902,52.8574661407977,49.4882804765912,32.4360426396609,32.8513812516304,8.2279066834672,10.6047714233713,5.02556901443332,4.44279626041302,5.72855246844212,3.11079500066525,3.46352667277132,4.7112980180533,5.15415640221228,2.89332173973921,49.2529001899066,46.8644437643587,48.2382378764438,47.8724958573181,44.4994761580699,42.6168830921463,78.2246849096154,70.7808344390726,46.2062537053455,44.3126073455996,52.6035875543604,53.1396100881501,99.5876415425288,84.8250802321142,55.4239059905798,56.3315124579759,20.56,20.56
SS01,TOL30,2,STIM,30,TOL,POST,SSV,3,10.7516485992464,11.0849436020059,9.84606602484655,10.0728629120629,18.5183704736123,18.4601391776943,0.23579354301559,0.233900304452175,0.115531578557007,0.115196339399713,0.160049413114962,0.157541285423621,0.215158320580242,0.209835555126948,0.195842660931754,0.194683473449613,-23.625,-24.125,0.561938348843578,0.549733391334226,0,0,0.924309947563636,0.918806617840491,-0.25,-0.375,0.903708810787372,0.902180810287315,-0.625,-0.125,0.783654643696753,0.785011040370628,0,-0.25,0.863351313794559,0.856513026313676,0,-0.25,0.868594853258365,0.874477747098152,3.125,5.625,0.891008036845827,0.901732824536809,-0.875,0,0.895598163574839,0.896812232084883,1836.10221264297,517.631666438776,67.3347843784144,67.5043275650412,-23.7373291449322,-27.9974387310413,31.6105676953693,29.9954585231358,50.1155637916081,50.6473716033061,82.4509051604568,83.9620133543174,32.2974243478324,29.5554352315757,9.58450860214004,3.02891971427903,37.7931422277819,37.0021628785089,114.342271108014,115.905608907717,23.395342173511,22.6226837905486,9.71260207591329,9.4299520990762,27.9797360949091,28.3080347270656,125.978242838663,135.573966837649,51.2308380856267,52.2025818886878,29.9028526705174,30.0189584911906,27.1856139883098,27.6409963873688,17.6093601361282,16.4838409485997,71.0911946506678,69.9044863385569,110.419934688129,109.464001407842,56.3416314736457,55.1659796083628,124.55476997739,123.618137008472,9.57776068172011,9.8934356328289,41.3973055092227,33.7043546766965,81.2560219584645,80.1677522868218,19.6942017025503,17.8980376610104,152.383622109764,147.335524434656,16.5326297867398,12.3409543653757,58.3333333333334,58.3333333333334,34.7497997672752,35.3267259845516,88.6760934788543,76.2343359267793,33.3303483184507,33.9019181122678,56.5231809689317,55.3845263981226,24.1907457629786,26.2674924986196,24.1887656119604,25.0317657786399,54.6290730536864,54.9028744593934,31.8889230514447,33.3230221316384,7.41184421111092,7.35416857275667,5.77165799452059,2.84182395895103,5.48626039221459,2.46479918595705,6.63794551819871,2.50416760821037,2.88390491372366,5.36703458350876,55.3845263981226,57.0451959352279,55.6472488204967,57.3447328685539,50.6325855562974,51.6392169685301,85.4033206759112,100.458087692735,52.9338528954394,54.2857972442141,54.6454578992085,54.6476127482404,47.2100706311233,39.4689889549703,56.152739676714,56.5348814789062,20.9,20.9
SS01,TOL50,3,STIM,50,TOL,POST,FV,1,11.5846829448514,11.6663568107574,10.5477762736419,10.6438596164701,16.8705248374533,15.9787370390372,0.161172449680458,0.158785932493778,0.177291194074502,0.176869643313421,0.180954143218571,0.186701849393213,0.0911931135045229,0.0911037317803465,0.139940848721039,0.142680601005512,-22.4,-21.6,0.672319627598557,0.715262466232674,0,-0.6,0.836217658941088,0.832839084330548,-1,-1.2,0.898538877493219,0.911943989104607,0,0,0.833571231606587,0.842967287113104,-2,0,0.879442236966786,0.876143547090418,0,0,0.913377652891226,0.90811133320016,0,0,0.960902283460594,0.962856501645098,0,0,0.881681487910573,0.878371197097804,524.913778168759,343.748070848094,36.0690963154174,34.4532849227401,-18.2570519638067,-12.6573714046259,25.8747045848038,23.0827102260503,46.1831501831502,46.1762160290808,23.6707302104825,26.2030963387452,18.264614513031,19.8648956085517,11.9052899848448,6.20559552923605,27.3659385876891,31.1916733303843,144.50603538728,143.95298765754,34.8921429139411,38.7308936510996,11.3935501690754,13.9303058943573,20.4366426548757,20.3669856693371,-143.598534082029,-138.539902536214,43.9218372537946,43.1512108470328,41.7912039678722,44.0628282461816,24.5815810043696,23.0250496805297,21.2365545174647,18.7973978772563,42.6685961582325,38.7793693023404,94.8782140792237,87.465011299074,34.191539361374,23.9624513845827,109.401721195964,103.094074325747,5.69298644247519,7.15690648819483,43.3882755995432,44.0617943700135,58.8711358889187,54.5853742087578,14.7486175564716,13.1701965685819,107.914606169762,104.54039207608,8.06724494936063,4.69983417801658,26.6666666666667,26.6666666666667,41.7186132876197,44.0772324706328,46.4635706914345,55.3720357803646,41.3465478924911,43.3517850956119,56.4470040822608,54.0065282925135,29.9616814443055,28.0857668954447,28.8673471766847,27.8011416055884,52.0992973237485,53.8078821865071,20.7394016417679,19.7387489926195,3.94058723079537,5.42566779850372,2.35386110651235,1.40906002310423,2.46116325770204,3.28622023880765,4.81393378562965,3.25725765297255,3.23790182689111,4.90795335633057,54.0065282925135,54.0071607879326,55.0831955216123,53.7506834750292,18.1923863800712,18.8131583965801,110.296806675307,96.5190536756158,16.4400135908299,17.1771618876025,16.7756158424075,17.5843362500191,167.551534968972,58.2923879040667,22.1343107670938,23.2103152533457,13.62,13.62
SS01,TOL50,3,STIM,50,TOL,POST,FV,2,12.3977352357449,11.960414763363,10.8986865418313,11.4336865912191,14.9116467917376,14.7548296955679,0.171223172196737,0.170141660155368,0.170952379210422,0.17558735389231,0.200016881652185,0.198971930659287,0.0783666213501169,0.0818290936672905,0.136493796535098,0.141088033107656,-19.8,-20.1666666666667,0.675294423489974,0.688702434723645,0,-0.166666666666667,0.833630137995328,0.819120102907307,-1.2,-0.666666666666667,0.919619751200121,0.919136786154528,-0.4,-0.333333333333333,0.805711379859711,0.813387333409361,0,-1.83333333333333,0.876644955349219,0.875446176348285,-1.4,0,0.84104454227801,0.854046233258533,0,0,0.966410564678012,0.968316893947191,0,0,0.874720151325594,0.866831006941874,752.905347112176,-104.389014268935,56.0946130301921,55.6657328738829,-16.401085571149,-12.2596480965057,25.5284832266352,30.901272673817,42.7104554855562,42.9969687730806,56.7919695233965,78.9904189920001,21.5200487359683,27.7950591054703,11.3432268953453,3.64391346970347,53.6324391730489,54.5272828140485,144.842056500481,143.350461509183,62.9269742437152,63.9571026930791,22.9712899107827,26.3882740299285,18.3520910821069,18.737855598094,-195.805424219155,-215.385671297564,49.1073204387344,51.0842908523966,6.41078230983787,6.06633385240666,21.7003838253338,22.2853338600471,13.1364870718302,11.2131244171109,34.7181242491247,32.7775910599248,81.2913730097344,80.5183423211704,30.4948274254267,20.421974480738,96.6831872060225,97.5011692699896,5.5175596692674,4.80596108306029,33.464294103829,30.4781106138977,51.0580194367224,49.514058080391,16.1893698942013,11.8734172781225,45.4011275743175,52.0910068205484,4.23920754421855,5.49902211246283,40,33.3333333333333,36.0783611508284,38.3749200003173,123.613831951181,85.7982757982758,34.9525860705768,36.7361639977237,42.4109169656372,41.2401746508552,20.5202674653487,21.6026969155088,21.5944129100272,23.679332544372,41.4895429675504,43.1697136011257,19.0810829229729,18.1473909790065,3.20081241021281,3.82260238703881,2.0287477819377,1.7954012814531,1.70027658174688,3.51374906241568,2.85852277229365,3.13996719640513,4.3042680194814,2.07436629997896,41.2401746508552,44.518901392933,41.2634116922066,44.6235918211709,13.0703730627556,15.7676404270529,99.7885932837389,136.510672618824,10.8898360168276,14.3624833902763,6.83496453420515,8.91977745756479,75.6677708256656,84.949124949125,11.4683872198402,13.4010174721558,13.69,13.69
SS01,TOL50,3,STIM,50,TOL,POST,FV,3,12.0642457845651,11.9594004143352,11.5110926208677,11.3591251882411,14.5977221011105,14.5623840689526,0.16438677993061,0.179671850155006,0.170616847554271,0.160734455138467,0.183196880035441,0.181553663424469,0.0660312358675571,0.0648158246894477,0.138414406712073,0.143397739667419,-20,-19.6,0.743135315404001,0.77429037493749,0,0,0.813735444922709,0.821150691225164,0,0,0.904353861870427,0.907961761942508,0,0,0.869876631801524,0.838663513428955,-5.33333333333333,-0.4,0.877729335934817,0.880806081837217,0,0,0.875338677353022,0.884247050329656,0,0,0.970104597114715,0.972318104812325,0,0,0.870477772377994,0.87098079087256,309.602431815573,271.43665943452,38.4885462270331,39.4977633137949,-24.5197880877749,-19.9714926962064,28.4053029789284,29.2012066192893,41.1097525691177,41.200386025876,76.9515374673299,87.5143885529358,25.1483079615154,28.1655869895294,9.00470118919302,3.47886341398829,45.2351629598446,47.642762234009,81.5474435967797,119.874309140779,53.4864982291871,57.0406928663976,36.24583330729,34.7220210400598,16.8383927533928,17.80922203859,-207.310659312035,-203.231050057692,49.193053223199,49.4687006529661,34.9466201272325,41.0449389179756,22.36244942262,21.7955158133786,7.46102448987673,7.29541687725758,23.2205912058015,23.0605611343086,78.8710018647813,77.9650092374271,35.9361508272749,46.2704319409995,99.7891289860432,99.6543992104314,5.59382572973473,4.99756291773166,59.4044300106635,63.0074074584493,43.0918217784751,42.9512600897121,11.0795588323502,6.78624394584282,74.6334661025265,64.4522636640862,16.1876801958759,18.4905108577931,55.5555555555556,53.3333333333334,42.1873464144184,42.6677397861347,123.684493838594,143.130036291722,39.4458418299805,39.1858052217227,52.2068836716898,50.9538053186773,29.5278273270648,27.8535471692732,28.2443101733796,28.0738874783383,49.3150426260136,49.2123142340174,20.2741889674002,22.0009547465633,6.35575186497911,6.6574670204477,3.0957450232723,2.40367744282365,3.3801298739579,1.16896484032185,2.41970793905164,3.57219647718974,1.41034610767954,2.99386961418723,53.103544889575,52.2068836716898,53.6975199774616,52.6270754478561,6.81669447716221,6.34891402935489,129.597059379169,97.8181567467282,7.12259718206104,5.69401906196669,16.5118103246786,17.6649382503585,120.522739416669,133.40898976413,21.7639174381227,22.9934742597544,13.43,13.43
SS01,TOL50,3,STIM,50,TOL,POST,SSV,1,12.2089319184719,11.1855980986251,11.3859486500608,11.3168184919098,17.194161175705,17.0216232044923,0.18642904102025,0.179022092920555,0.152912867229664,0.160272391492378,0.168772508431399,0.174950830525713,0.0837540457067208,0.0854451893788373,0.138529170125684,0.136797621335491,-20.1666666666667,-19.8333333333333,0.625375715736184,0.66446954470191,-0.833333333333333,-0.166666666666667,0.8208108648069,0.823432659258303,-0.333333333333333,0,0.929630235388538,0.932049164218468,-6,-6.33333333333333,0.764741300771427,0.775587694802896,-1.16666666666667,-1,0.891430980681849,0.87960528654458,0,0,0.855796772524284,0.848059851068455,0,0,0.926521518503382,0.926783208521697,0,0,0.842322327956887,0.848189978149494,272.657782004683,-49260.9380857816,46.6129525928368,49.0170987414691,-33.75147288658,-30.7328989378189,39.378345346486,39.957180314067,48.5928197527045,47.4496938205633,52.6989568866649,80.5703841142607,29.6780815259667,29.5561380818561,5.04120892814917,3.75929661755434,16.1214415565324,16.5554201429402,92.1661521031864,87.5798702050765,23.1765516849785,20.066110915068,6.23846776817864,10.2577840700314,26.7151702838921,29.4913835442034,-170.343954296185,-182.093033257066,51.3820784643927,55.8241131078284,4.87618663525225,2.98534842862456,27.1250922539932,26.1831628140457,23.000083530662,25.4913904496377,57.9568616499226,56.6582694538484,95.4996595766998,94.5680760364132,57.0865643010251,43.7255982342647,103.359357356425,104.677313777269,5.75649788822469,5.54469384602362,24.2623051392244,20.7320343469287,69.4120010054321,68.5082013214166,16.8783782064864,15.6149843827479,50.6611402937281,50.2163520007722,17.2402434068468,18.0790796226994,55.5555555555556,66.6666666666667,42.859310402664,47.0263984533944,116.092993113052,119.080831627279,42.1344321886204,45.9390733168894,52.3268887438819,51.0376487669043,24.6366784263512,24.0385748936785,24.0368369163387,25.6235433066537,54.6087382537961,54.1044573668357,22.954931290325,22.9113000389366,5.80285233080457,5.56786984078022,2.63500321110275,3.27972611299943,3.28430088672879,1.28393111640345,4.90604473454811,2.44374646366911,4.63610692663647,3.25024266500587,51.0376487669043,52.6218274137661,50.7535312190718,52.8275026832588,6.64437388977124,9.11527499592801,87.1415012464716,126.437832592028,4.87850517029637,5.91979736089265,15.9293592340599,17.7878253842423,93.9860901625606,86.1462324393359,25.6673755278053,27.1278501687637,15.65,15.65
SS01,TOL50,3,STIM,50,TOL,POST,SSV,2,11.7254586924929,11.3156209410089,11.0934225090149,11.6012048656777,15.9020060098544,15.669977339685,0.19131771018106,0.172700394043269,0.160560059595522,0.162674589607121,0.188342609412926,0.18803254475742,0.0941499058537646,0.0911698466025207,0.140210699382101,0.136347066488085,-20.4,-21.1666666666667,0.713949145004651,0.731287251165895,-1.4,-1.83333333333333,0.845261775387525,0.824464679245377,-1.6,-2,0.936494273951969,0.932250419540139,-5.6,-5.5,0.837939039642381,0.856263609319371,0,-1,0.901711292211743,0.910786020811632,0,4.16666666666667,0.854860777697339,0.855439954403737,0,0,0.939902376018571,0.94209564525108,-0.2,0,0.843349087673594,0.85063027156693,-3174.08293163789,2335.70913992412,31.4730035894932,30.1925189259489,-35.7488209886427,-42.8481078122857,32.5595487774975,35.5825194573806,47.9980984160141,48.4111541890887,26.7001947026573,26.5302246281148,18.1566424250866,22.9150134847119,5.12268052789127,2.52659181096526,19.4096589755264,13.5785863910638,54.4009324009324,49.7291020253198,23.8304099183606,16.8830765630956,9.01681920880018,13.3452774607296,20.9790859403911,21.6137013551568,-104.246425740818,-133.726054127977,37.2380427795671,41.0559811845216,4.61722751592424,6.29717773196035,25.7656024390304,27.2338164461801,19.5332693383879,16.5685651415891,47.6663347611761,43.4326536553258,85.1260767568823,82.0660418341072,43.9290459785437,44.5888708365265,92.0048645785339,88.265485994907,6.96431362043177,7.85389596307952,41.9684750733138,31.6404780059488,60.0420129359126,55.8946892645314,10.0844419906821,11.5451980401221,87.3806553806553,69.0884172492048,16.2230450247332,19.8612019545307,26.6666666666667,22.2222222222222,45.0454364719338,43.5621994191613,90.6752293890664,116.620427336175,44.4121672387419,42.6542285381945,53.9313543680845,51.9375029291025,26.7647760889034,27.9218865471868,27.0007113718259,29.5298096399094,54.9898471038419,54.1082036228982,19.5401276451325,19.6148935707892,4.28064257062188,4.14174435471815,1.96245714512761,2.3552937472864,2.13035386011701,1.86699453852051,2.47879429521282,2.74767832889401,3.53759411103795,2.30419357891608,51.9375029291025,54.2501546140964,51.3110186840892,55.0032650281244,8.85230721393006,7.95188755827687,110.168247944339,146.188308656796,11.7051075599388,9.96421442759824,14.6198352787335,12.7575073553536,134.932072164519,160.498220191233,19.092571748044,17.0863755929666,15.12,15.12
SS01,TOL50,3,STIM,50,TOL,POST,SSV,3,12.6165344206782,12.443031563175,11.2452376743643,11.5017241875931,17.0038900733472,16.6613033554536,0.175085861366901,0.174144196437467,0.175918801927319,0.174926564630941,0.185890575536489,0.178832456623182,0.0714312822218374,0.0627842226477989,0.129357517399304,0.129040416141736,-22.3333333333333,-22.3333333333333,0.542573895123578,0.590445619154634,-0.166666666666667,-0.666666666666667,0.816633167788975,0.805401581142698,-0.5,-0.666666666666667,0.909903647621041,0.914471627007556,-5.16666666666667,-5.5,0.829243278631338,0.843940968475609,0,-3.33333333333333,0.879149929456235,0.869816501587637,0,0,0.876768159024316,0.880783762861218,0,0,0.966102715742774,0.975187462249195,0,0,0.882958575346917,0.882328442264378,1437.52726770943,1104.49766300847,53.7471239953334,51.4037267232233,-14.9561919896144,-18.9163273444277,33.9389960334249,33.8529556725564,49.6634025610275,49.6532133452308,52.1331685678118,81.0008705052919,20.6709587405751,23.8738315103756,7.28352308038886,4.7414860108562,58.2565016278391,55.8826826759134,81.3052050905328,83.4463496782338,60.1289301064943,58.744435218817,13.8522376845334,16.3782094730362,26.3501005165399,23.1036229920092,-181.167609016894,-173.191108325997,52.8506795520933,48.9523847215989,4.31981274058979,4.49955807680028,29.8721638961719,29.2221725445115,19.7074734586305,16.8996167235564,53.0595912475505,51.2684582300516,98.8337366293998,94.3941823276408,35.1061749298699,41.6162843294921,110.786137934506,103.743889323643,7.10847016981276,6.18572080770725,21.3050776674431,18.3434218262085,67.249589050941,64.6329182354449,19.3289766004574,14.5803893614034,122.059451548512,119.732030642827,23.245821496487,19.3381466661834,33.3333333333333,33.3333333333333,47.9104668527215,44.9036209891206,120.160732469709,108.81828258879,47.1479323739276,44.0486414144561,55.405611908842,58.8094888666545,28.9470653675091,28.9524038931783,29.5532743559635,28.9941719148043,57.4764865204181,58.3662121340911,23.2753597047707,26.5778115907168,7.56691660590952,8.497563632967,2.88656738012651,2.90357807794163,3.34742465574211,2.51092906176636,2.68950725197865,3.74706910458886,1.43058038391917,4.85466043473803,58.8094888666545,58.4920183628535,59.4542345184815,58.7911183888009,10.8220228748718,12.3071157073955,127.47781139044,95.1297046033889,9.95555707712943,10.6977160803593,16.9482337387701,15.0375760476131,92.3002110023062,138.35201254006,20.568800342552,18.8882918479038,15.79,15.79
SS02,RMT30,3,STIM,30,RMT,POST,FV,1,12.4423620631615,12.3944006779608,13.6728922259324,13.6821302523539,27.6421624072606,27.49440701002,0.135844802944785,0.147077354539591,0.286493871625858,0.28633342736058,0.379804194863207,0.370077677462334,0.125872971683937,0.13303562926123,0.137817345049112,0.127472955764583,73.25,60,0.419497977765307,0.413631150036341,0,0,0.83565987159441,0.833711422568578,32,30.5,0.255148435926884,0.248016700830655,0,0,0.874452374561457,0.83600847468878,9.5,0,0.804123554342873,0.800451752912861,57.5,57.75,0.801052727660641,0.786964201839509,0.25,0,0.919383934800353,0.905338386909061,-0.25,-0.5,0.88045249112605,0.890093414434766,-429.102431406494,-434.85944309315,98.9735197844982,108.890243727179,-95.1282025646142,-98.9035362118916,96.280863271062,101.89676841538,26.521516468402,26.0446270615762,160.025995509866,161.977842167183,74.7514952639583,78.358381083037,7.48081833672872,2.76400367309459,23.4514470391849,18.8743441008815,146.402781161699,130.882205513784,28.0893294534763,27.6542840371483,31.4822835599896,29.4182127826223,55.2140544460348,55.4506187066481,-129.76822216572,-137.56197460305,68.5947276971072,69.972346224216,96.116504854369,96.116504854369,38.6598824217004,38.6612823732499,48.3905713950385,47.4040016605026,249.472870062464,244.702773566063,151.723304040405,151.27553513854,-264.440987328443,-262.90202119742,76.8460874681965,75.4777453828178,92.6003804792915,119.283559577677,41.9551073717462,38.3815987933635,101.522623547091,101.145840635741,95.269688143526,96.4522259207826,144.461643565931,146.741260573396,100.502076998156,101.71735580833,10,10,74.271042080133,73.4737498253874,152.238090086192,153.548359535201,23.4185735429423,20.0856625694106,60.3772430637717,61.981728208754,35.5772139072693,35.5658939489082,35.5679542268379,35.0899857709216,54.4978575873147,54.950196369544,35.1575528951825,33.5414410532151,25.1175980053673,22.7370091298137,3.16241753725845,1.1216136005102,4.01524098951823,5.26781802219573,3.39693393550689,4.49666443128904,5.11670754985212,3.0966587551727,61.981728208754,61.3773528986871,62.2883863992613,61.7887016159589,13.1636767752869,12.2134670987701,94.5243014804093,99.4553187725876,11.530522403248,8.6469497838884,15.8598808061685,16.9912133536006,135.330086580087,136.433566433566,13.9972047345539,9.77279419851316,13.02,13.02
SS02,RMT30,3,STIM,30,RMT,POST,FV,2,12.0776213619485,12.6637999231412,12.2412454171621,11.9835086620283,27.1421037833782,27.4200001849596,0.172629666203257,0.180448602133047,0.275445202891228,0.263454551506945,0.309155657390948,0.305876617169033,0.179444287535161,0.138606642326,0.18066795008738,0.172546483104663,74.8,59.75,0.329491052603086,0.380865332009779,0,0,0.854170868239732,0.869541375909416,17.6,14.5,0.367429776741563,0.372955762530074,0,0,0.789576129271705,0.791897573971828,5.2,0,0.766346266871259,0.786594319270725,34.2,29.25,0.747911057695124,0.76838794034596,0.2,0,0.879401293641082,0.908497541715852,-0.6,-0.25,0.858043867291659,0.860079824335503,545.41558033292,397.927558775656,110.555958611363,109.264130710439,-101.347684625542,-95.1875916269125,104.133278637773,99.552905793288,63.0375718362463,66.28302731751,149.713730814757,146.123550741851,91.0579783503597,84.3192985417148,8.89913853066275,6.44342567046892,13.6090933960419,20.8572517558725,117.62814229249,161.663106071564,15.1962005566621,22.6323789051948,21.5595967402187,23.5020082001124,48.7146846501198,47.8204070451788,-178.239550768719,-191.642423968805,65.481638689761,64.8258671757958,76.8932038834952,144.174757281553,37.6150332294398,33.4561065939943,40.9702532521337,41.6214282352968,219.05473040533,220.936616193446,136.831152128142,136.932348138835,-281.5646921185,-275.612343932301,67.1796152949605,67.2450286509297,33.772271698054,29.7839131862856,35.8687210995931,33.2051287770972,95.2109471384638,95.140396751327,80.6072400556967,80.6836452459483,91.7649219747034,100.731718081116,86.8454280814012,86.8007638751315,8,10,78.9570120026291,100.033541821946,145.750537891465,164.184718464778,78.1064845321767,95.2791848581619,63.6414782129068,67.0765243333151,36.8194956080651,32.9953135663737,38.6266637478914,34.4076685090339,52.5575462411136,51.7008118938669,51.582170594535,50.5643251628391,30.3582360351116,28.307250126608,7.60823791760852,2.97250839503062,8.32077626182388,13.2275061582427,7.87513739322663,15.4887556338375,2.5257098406463,2.36956750418686,66.0068984789978,63.6414782129068,68.0767719367064,62.5264902839588,18.87876090024,13.090813133545,96.5736649017111,75.6235227991527,18.3339004743587,10.1760059752167,26.7649882648951,24.6256021446419,125.035217035217,99.4967532467532,12.4594810691467,14.985184375809,13.89,13.89
SS02,RMT30,3,STIM,30,RMT,POST,FV,3,12.8701831563574,12.3901196517926,12.899437140806,13.1989575944019,27.9700624488612,28.1282610087548,0.154707217354982,0.162471772381047,0.260334890434141,0.262391331619066,0.401485756254817,0.38484457224694,0.152135305394704,0.15160207655394,0.115705053286445,0.120250369845954,73.5,74.6,0.335281899248154,0.321809868851449,0,0,0.834823331075471,0.829854373873373,12.5,14.8,0.204348035792459,0.192568848251872,0,0,0.795637771935188,0.800474414573546,-0.75,5.6,0.813030991303445,0.820559974361495,50.25,45,0.680260454628951,0.715645217514011,0,0,0.892428424221811,0.890816716446773,0,0,0.918939451372861,0.915269772737689,-667.571124880824,-1364.23891532919,118.861368498959,121.63560842786,-78.8855835308038,-72.3788294884767,91.797131606567,88.9324054322547,30.119095037446,30.6810165703088,166.653455240412,167.186451717961,58.1900571505803,58.5869003633491,14.2217237542129,6.06627579809436,13.6924649821561,20.4403566477803,174.059894463309,135.784064120698,23.9553523418675,27.5345456819343,22.9666138366598,27.0319614356584,52.2118577383415,53.678131211179,-148.573161836803,-148.362773383737,67.668224430249,68.4191770680029,49.0790857605178,78.4549301215044,40.7921034447603,41.6155633212128,44.6328689518857,45.7966113970877,277.74041361863,275.543746471213,156.068888877004,157.981640995848,-270.610370646956,-274.139396463775,78.2197421819962,79.4794777634823,64.1579715832536,81.383236071494,54.5054945054945,46.9252017974863,97.9939735516193,99.2211224169476,88.5891144895807,89.7817078770891,98.4399824223374,92.1556730629159,92.5080047512945,92.5815378252979,30,24,29.4695491840855,55.2041473878288,149.318114261935,151.512710587344,19.8230878616376,46.7760641485386,61.5628397990905,57.7170654524659,34.4728168123298,30.814616547474,32.1070694912256,34.8586570098086,54.0999089017073,57.9166669642061,40.3321972286719,41.6106371909804,28.2662263886868,27.8101775175411,1.60499405868967,3.52655920991845,5.29546730591215,4.83931054903777,3.73654543857674,6.61846469537608,3.81971930970553,1.62970095460636,57.7170654524659,63.0405944199175,58.3211037831643,62.1789403132668,14.9895680740978,9.85218613415709,56.3260257256764,62.2124451201037,9.49897163618047,4.98999741721434,13.0579018567457,18.7092163900202,128.702868192072,112.675309014169,13.9152648419389,10.0828398450847,13.44,13.44
SS02,RMT30,3,STIM,30,RMT,POST,SSV,1,12.0600200562988,12.4052544167808,13.2736998996526,13.8726946843325,28.2269491551377,28.3522861980044,0.138511794428865,0.14490344679219,0.243839556411164,0.250153715447153,0.28111767289483,0.268359606453778,0.200432958077997,0.197966586684126,0.164041861120502,0.142724095461552,76,75.6,0.315084363913643,0.301417865173134,0,0,0.83795431313897,0.804968278051575,19.25,19.6,0.188629337884999,0.18220086772456,0,0,0.853082983426837,0.831369825008261,1.75,-0.2,0.842955375654659,0.822034195590284,0,0,0.815473499424549,0.820925839781352,0,0.8,0.818643884841903,0.824721899960371,-0.75,-0.4,0.837721865166866,0.873217302591765,1115.83164462336,-2162.97092668448,135.816208148616,142.371874819571,-81.2303927270276,-83.2029745661651,99.5886061085014,103.409418518598,26.3478833128257,30.9810584752747,168.154280833169,162.375357895294,76.3106820451231,75.1524922535778,5.53737521113319,3.15681638669326,21.4260999070804,20.7704624346306,156.219271205514,92.7819548872182,31.0029469081334,31.3704793818501,26.3944680107096,26.316951901787,59.8267147041427,59.2078258374461,-186.216333921699,-190.257192491035,79.8591750490203,79.256771208637,96.116504854369,76.8932038834952,42.7571209972192,44.7389438906467,52.8086589418469,52.6346082231311,268.395259234713,277.450780401689,154.255521679032,155.408888597266,-267.939325095144,-271.79662043133,75.5865098900687,76.0063367148083,40.2214275975409,39.4451368175215,33.2124265497431,43.6816821038554,98.0936894288717,96.5020285555874,83.6679049262359,85.5663383830947,94.0650051735308,100.152476143968,88.3477655188442,90.976502723987,10,16,138.909200971639,139.520440743337,92.6605504587155,116.75539213778,150.699312857237,149.896959191589,76.0757414114659,74.5596066564825,45.1972913376411,45.7733811463259,44.5844897589004,44.864438044061,58.6140874226923,57.0044792388459,46.1932634196795,44.3736861448331,24.6254033246285,23.7696988118206,5.45448363017449,3.58142080839827,5.12711424604464,5.55457274325643,7.85742403205852,7.45498457640477,1.82948978448429,5.31349016915898,74.5596066564825,72.2769021420483,74.0378303602713,74.640624406498,18.762979653505,15.6074754069138,60.3307171084072,81.8819591023551,15.0720412777252,15.4341916011463,27.4529710998091,35.701959892485,106.917228739784,111.85578862527,15.1319394117574,17.3098789554319,15.52,15.52
SS02,RMT30,3,STIM,30,RMT,POST,SSV,2,12.781465118673,12.5782204519475,12.4677311636748,12.2153854303868,29.0702837747646,28.8355040133467,0.156561633834675,0.150965324801114,0.244025095295354,0.236107749872916,0.249626800983175,0.254023514687224,0.128147496490437,0.128353617194657,0.138890096123868,0.148001133189855,77.2,76.6,0.249573359299443,0.230634288730482,0,0,0.86347970557511,0.873260955368317,54.2,65.6,0.168879961015084,0.203413372965377,0,2.2,0.804140570976802,0.805132929855873,9.6,6.8,0.786407794978738,0.805427418381709,0,-0.2,0.848096829578989,0.854693920117602,0.4,0.2,0.896375667873603,0.891352251366983,-0.4,-1,0.897444044362119,0.885788386663467,-254.708526526957,-657.638904999218,140.725941593727,138.227418949795,-65.4210168022556,-74.0370966218026,95.1579305972637,99.8567417744327,35.4576271186441,33.8549239089547,170.095918266131,140.785609430771,66.8810678481962,72.3318969344006,11.747309051848,5.53470839499246,57.0248223730324,47.6794897652681,139.362489161275,154.356276630613,59.0363009841487,52.0187801474253,37.1365958602217,36.4178246557777,59.5282850101402,58.6418625177379,-193.709419624432,-178.780227177606,76.12833824575,74.1138505189053,0.808080808080808,77.701284691576,42.4466057812854,40.8204087073323,51.7458196883352,50.6051103403657,277.671828314135,265.242270002203,156.917956795744,152.825470528683,-293.175867457347,-292.601147315057,75.986070175038,73.5516989811503,101.982981439893,123.563158558053,23.5864565143736,10.0555290120508,102.589573242067,102.955236640216,102.190139969781,97.2798627896531,118.194269538356,95.6456775061519,103.538561070979,98.4910084181753,0,0,173.293869478209,174.019470020752,88.5728848114168,89.1457339692634,176.745484791625,177.371780023996,61.3145305807037,65.8390296129098,32.8081626133321,34.3526542845473,35.2044784435117,33.6548069060647,55.9629884009685,53.5844213677841,43.5365593522381,43.7963704519217,24.3506667526371,24.8410277545523,3.16430707957581,3.68433525102754,5.18875849988592,1.84217569123875,6.62004982969359,3.43206649661485,6.39642909272364,4.16273480469802,65.8390296129098,62.9095479618307,64.3884071657159,62.9883697479732,11.8108005229768,10.2520164448277,108.466597591427,106.916118422315,14.5323423540409,12.0572816780182,45.8247857645501,38.2816381008053,129.80520804374,134.249652488184,36.960209191504,29.5519170467105,15.9,15.9
SS02,RMT30,3,STIM,30,RMT,POST,SSV,3,12.1843045985589,12.0250848041819,12.2208220874172,12.4218075289162,27.2184004679738,27.3931643211917,0.162166570390143,0.169228002627519,0.249307751027501,0.259950596496592,0.261227539320547,0.2589155072341,0.113298560917851,0.111986391230762,0.119283316875694,0.12054702750759,76.8333333333333,77.2,0.347651403369041,0.350585897096686,0,0,0.829416795556589,0.821235998077289,28.5,31.2,0.247122546834347,0.241560139458861,11.5,13.8,0.730697639988998,0.730021029632918,15.3333333333333,14.4,0.769304039892308,0.771184992883277,-0.666666666666667,-0.8,0.796358155079303,0.792206300939199,0.166666666666667,0,0.906708844680069,0.90952380105196,-1.33333333333333,-1.6,0.874154101416852,0.875661086020637,5601.46546134569,-6109.4821606047,136.1842211856,130.793046762959,-81.8574395540747,-79.1068174120447,101.060579035261,96.9509265186741,32.1800644110844,32.4267665050102,164.229943776958,164.894512249709,77.9780534854464,77.3607729560936,5.17498687184235,3.51731835369398,45.3560789869209,47.2040529211181,149.952811688285,138.97039232998,50.6237786747173,50.2433267926048,12.722642654822,13.721109662182,56.8715674205764,57.2614240329544,-232.235027355563,-221.535876864021,80.8874426275559,81.2239297860157,96.116504854369,0,40.4613923376601,41.769723795646,43.4143212401531,43.2215183521938,248.715647201603,250.737754176455,149.522477689022,150.524183408808,-250.262295143727,-242.867481317935,73.4388321501346,74.9117099917169,70.9913733066947,79.7190231152497,30.4958840734722,31.2071395623137,99.7385452996545,99.9110881690209,103.877166422754,104.608044664919,130.096352653582,125.63136731022,105.926211228821,107.067214135881,0,0,185.891897344415,185.846946652151,93.749877198153,97.3737373737372,187.799452779632,187.780130049093,74.7891102764397,72.6978835658401,40.44074132724,39.9781051043601,39.8641248129737,41.042780538415,53.331162331255,54.8375828789341,49.8150246362776,50.0897750189159,27.5823513910318,26.275454448437,2.75055840397622,1.32127002519648,3.25091164870303,4.87799141178555,3.23350070873139,4.05816308313145,3.57120451484577,2.30595596368448,72.0559286125591,74.7891102764397,71.6479537196357,74.0478898679302,9.56249469623911,10.2356091752385,79.2918167964531,54.0225477102624,9.2623520568312,10.7429632620766,22.0123742783764,16.5534572674517,69.0242763772175,76.7777777777778,14.5686126506603,16.6820347530565,15.37,15.37
SS02,RMT50,6,STIM,50,RMT,POST,FV,1,13.4504869011103,12.8049029993937,15.2970927366409,17.0954704680819,22.3572712686215,22.8414141860983,0.129307461327894,0.123395477441324,0.230219073626635,0.241549069205943,0.123056455851887,0.137896151158175,0.26253499597586,0.277003693303362,0.0951803159975803,0.126588264536153,35.5,45,0.384413618079045,0.462174068482249,0.25,-25.8,0.750945113268262,0.733576210947508,13,16,0.636568012446818,0.626404271212433,0,0,0.894069587740117,0.895014793274249,-8.75,-8,0.782507870763112,0.779672012033079,0,0,0.906288475355282,0.854649724401517,-1,0,0.925944868601062,0.907006770981815,0,-16.6,0.939098114238414,0.891802463695821,-421.613939802827,-130.052193213604,39.2987656817992,33.5743932258286,-123.983846677134,-124.875888462173,97.1084700198185,95.8014636162312,31.1550217571305,26.0156985398097,124.983277672735,100.83078934981,76.8799339216103,72.0316128776694,5.39680989699662,16.3406944242055,11.4702327880799,11.6078893730002,152.67005366942,50.9199081631379,21.5424998892513,18.6910837644976,18.6092557674547,28.7434417187402,47.2423654103497,48.7845062067861,-157.63282303172,-196.225997880881,68.7964475724576,74.5067999911132,1.5,82.5513324147949,46.483133724513,64.1635662812134,41.3070596974249,39.2314694976294,126.78294621349,121.909498913168,118.442887556772,119.115023224147,-273.645889056425,-265.639805458261,69.1770851012124,69.7843135420966,93.6209486333247,76.3038691024397,60.6067305330386,84.1943520784101,83.4696621442205,85.2452512977039,35.9552324056956,47.4075035778488,84.3820575207437,74.5576632518805,52.0155894170167,62.6677639144956,0,0,17.4343118238915,21.4364351299183,100.47619047619,88.9824561403508,15.0595312513409,17.4149925176262,60.685395037907,66.6185400349459,34.455312103407,42.7009901050718,40.7336099162858,31.3225193657948,67.7565729429975,67.5925142107898,34.6580936778906,30.2628730325112,20.8996422995084,18.026226619931,6.11944492707649,8.10338615605951,3.97085529718034,10.3744384024668,9.43580928938791,7.10064371138377,1.09401165438068,2.08979754458234,66.6185400349459,54.096970274632,69.4890744141985,52.1494898489612,55.4295383387407,56.6474510982279,41.4389570723767,54.6335668491085,55.6261716032251,54.8291368561588,12.4672851615074,17.4656292728134,87.7777777777777,90.1550151975685,15.8411861156077,16.2140263385057,13.81,13.81
SS02,RMT50,6,STIM,50,RMT,POST,FV,2,13.1091229761645,13.1723218634473,13.8868830772592,13.8600411366688,22.576138709056,22.9074686851494,0.162143005530778,0.155873305408888,0.273230484547824,0.267710925743181,0.156444489361168,0.147535533974422,0.209401586166443,0.200305453814293,0.110639306335013,0.117603922121505,22,35.25,0.433427143625544,0.448678677594898,0,0,0.857422852977121,0.856342799913776,14,13.75,0.679031027254774,0.683313191098284,0,0,0.862469851885344,0.858193484869405,7.25,11,0.752062612601585,0.751580722909722,0,0,0.881384874170635,0.884161036275193,-0.75,0,0.920505886600383,0.927549546925754,0,0,0.931010683764129,0.913153951391166,65.5833405725795,-832.103525158638,51.7588667776335,50.842493850232,-129.06696641449,-129.275501459545,103.150068750601,103.171434016302,31.6280743788192,32.4790841838897,86.6057309315736,86.2708786540561,90.7390196553956,90.9969211176414,7.39072983565207,3.95764557823255,17.5894482630917,9.43968640225356,126.353888210859,79.3387015209867,20.3757368044574,11.1232632297187,16.0961140025196,16.1202357458216,41.5520765629893,39.745781600264,-317.870877494246,-335.347272311347,67.4573471540833,66.0979003178772,0,144.174757281553,43.565438079265,43.2220861156393,34.7123530473292,34.311046142668,111.66607640611,112.509089071876,117.336464229011,117.789839256739,-238.751305388893,-237.90397916998,72.8213763403723,73.4538127362095,63.3240616447365,62.9967942495606,60.7205966724039,60.1487093153759,82.5739625054656,83.8391488957621,56.9635502730225,53.3124367893911,116.970077349175,116.221513886706,69.1764073676276,66.5498958979916,0,0,35.0544350286463,29.9543515240216,119.222083246474,114.027370478983,24.0631800034413,20.6689596715436,68.6728079328051,71.3852865123073,33.2720543284592,36.1293289920206,36.0278843820935,36.3198134696373,58.1913368316953,58.1491014330332,40.5696985257382,46.7084421035592,21.2353464935011,25.6570234537213,6.7340533661605,1.33357038211277,3.77771156907475,3.94833337586766,2.95853889658725,4.55007953287186,3.01500636750814,2.1623492014186,68.6049912947947,68.6728079328051,67.8208964645508,68.7191468362274,42.0066305923165,40.9045701807516,81.151857296706,50.9453760123802,39.1435436905509,37.9289625212068,16.1165882175775,11.8717328929182,100.062539086929,107.113821138212,14.3450107673327,13.2805561137085,15.1,15.1
SS02,RMT50,6,STIM,50,RMT,POST,FV,3,13.0089675420306,13.1731187246406,14.0797226375899,14.8953510120042,20.1254514962761,20.4700642237888,0.185896178650393,0.19306889791795,0.256901975184439,0.272919120236619,0.140451162464627,0.15164275037838,0.31664672469893,0.312284364679542,0.12895103874591,0.125617519349518,34.25,23.5,0.369616826817392,0.378738509235527,0,0,0.798434701954196,0.76924411897253,9.25,10.5,0.701796094032485,0.697132375307838,0,-0.25,0.822556821977397,0.791897836273297,-2,17,0.758281968024796,0.762149067499815,0,-0.25,0.896268155117287,0.885260688420428,0,0,0.93726214288303,0.933358201919047,0,0,0.936087517454789,0.921741907281931,-93.0672950825928,-12692.2387899919,35.7862279397873,35.6040838529108,-121.812125488782,-119.4218986386,94.2856853155637,92.6132586474922,33.7663807314225,37.0715143138289,104.757228375847,124.908005606213,68.7726613424443,62.1707722498932,3.36934781653154,9.14070845095037,14.1721083338033,12.8947315986248,135.184334556364,141.641996269549,20.8983972584573,13.8748734427919,4.33371551536543,8.19925350226238,38.8422658082521,41.8666872975469,-184.683727662284,-207.077419341669,64.7311094030745,69.6025510418674,50,50,45.9082553118721,46.9766668622504,33.0626869274098,33.7313769750282,97.6868648683898,104.970466738523,111.598273670997,109.336194871329,-219.859225791034,-218.600400429529,68.6568587463967,64.5907873303578,17.7299449886654,18.3687412371379,60.6618286333835,63.2770126821609,71.7476002606491,73.1394798429901,41.8434859973107,47.1363627235177,114.244764244764,90.2077551602583,50.10601605415,55.1108342825234,0,0,24.447804732804,32.2758204441049,118.136740934906,128.599686643165,12.0880575828182,20.1964887502301,70.3557905922697,65.5356184635995,40.5509776743295,37.623866819172,38.1663439886468,42.3002061114023,59.8288901116897,64.688403937126,33.4401234900497,37.4789075947176,20.6827409031346,22.1745756056413,4.90005423162648,2.5822345252985,5.35852979422179,5.89507824169532,2.75695197257556,4.11018513443875,2.58413600930606,2.61710247587144,65.5356184635995,73.1334417222064,68.8046260973114,72.7288481925993,76.6305944267731,75.8432069668565,14.3371683977169,13.3050913731005,72.825760851454,71.6681760029581,18.5168479055812,12.438687254083,107.101200686106,132.343966712899,28.1494657578372,24.0728022466536,15.08,15.08
SS02,RMT50,6,STIM,50,RMT,POST,SSV,1,12.6786742532364,12.8479383434215,13.3554561212372,13.3553019129454,23.8076666961588,23.9150224250218,0.130791112819936,0.116914391330937,0.247187026287602,0.235425999337381,0.128528102498489,0.130169087691617,0.173055391178287,0.176164556489982,0.0972350431049561,0.0863913113593815,55.6,47.25,0.418965877968577,0.427925418999873,0,0,0.824267030526955,0.819583277887689,9.8,7.5,0.582483125588123,0.57907251048412,2,1.5,0.83309209048656,0.856139306983745,5.2,5.5,0.731851578875354,0.743484902001267,-0.6,-0.25,0.91033284514876,0.913220670413236,-3.2,0,0.911670960364976,0.903081013548478,-0.6,-0.75,0.917271306134009,0.943671926549633,-220.299095987962,-160.943093378013,87.7464952040477,91.3888009723442,-112.818235814584,-117.066865118325,103.380135033544,107.585014371303,22.8001034504196,20.1224446119682,151.989268465084,149.272701329893,78.9399763706231,79.0717243754274,17.1370483933297,9.31156695768787,22.6288437484148,8.34854763901028,148.566356185213,92.7206491140917,28.5830989163316,13.3353920339015,13.2124917803319,18.0496395950262,45.2317603609038,44.6564082866167,-278.707381952567,32.7407339292977,70.5202537224518,71.187442414858,115.739805825243,144.136306834567,40.9942095107611,41.1283811945078,38.4466499147345,39.0988460312513,146.862441889223,148.000432439237,122.331058244597,122.430428185938,-303.39181596386,-303.361953805589,71.5338267507587,71.4062309805954,33.9421672724864,33.3549717733838,48.9172336287593,49.729805775291,93.6933646503952,93.559628077987,64.3840148596157,67.8406208152917,125.016160546857,119.04495673631,75.516556075304,77.3492812104921,8,10,20.8577419713365,22.033144056628,83.581245582345,75.9938837920487,25.107570831111,26.6460230992461,69.5904569604979,67.8579940301298,36.9157345458248,37.4910171114131,36.4806170467493,37.3055471122094,55.4998555927839,56.9392328823749,50.1491193945643,50.838258114805,26.5697454048079,26.9845878507258,4.42245804598174,4.42470711686882,10.5906710437594,6.72920619371375,8.11753337325831,9.23412354812362,6.66745895358134,7.50276667938039,67.8311290859385,69.5904569604979,68.2947946580507,68.7602310541758,31.6670938188834,27.4754910663335,28.0784711477373,43.8151284925479,26.9979017706699,22.3347114703157,14.8765138540289,19.3641261752031,66.0080921257392,67.5130751601339,11.2529708402706,13.1073882330113,19.44,19.44
SS02,RMT50,6,STIM,50,RMT,POST,SSV,2,12.4918347767768,12.7293317901856,12.5728625740006,12.6110850273237,23.4097670686185,23.3492694155379,0.13375645265172,0.138304577972285,0.240667934689681,0.234147609956138,0.139877652836454,0.146668474903911,0.16407334164669,0.194648302556793,0.109353408726705,0.113549860652598,48.75,24,0.394002617274949,0.384136763773091,0,0,0.842734515927577,0.841691659736935,17.5,16.5,0.595937213808962,0.574327910124001,0,0,0.808930405517668,0.797467000991589,8,6.5,0.734723378427166,0.776973245687719,-0.25,-0.75,0.831114042286421,0.816917178181381,0,0.75,0.948620218585677,0.941544163750747,-0.5,-1,0.896072329965389,0.86906720753508,-84.5934599788768,66.7047289543166,61.8325392526763,64.8135860093132,-111.304097924584,-116.080131734446,94.9696047440702,98.9117739419541,26.2001457208939,29.5643592206785,161.101264327071,144.704562022049,77.5356681605091,76.2121736133564,8.53579270970573,2.59503728150592,5.44659715478882,10.0217488524423,127.937994173949,108.335638598359,12.3238743387237,14.7319652059252,5.40200327643254,4.94418232213175,46.3536465153698,47.4287775356377,-237.894583287631,-249.978378556019,74.9184942111977,78.1328831094657,144.174757281553,96.116504854369,39.1408782788093,37.6212004380946,36.5595093908645,37.5701258693177,132.648152754263,133.020747241616,109.796439953909,111.305969599947,-286.590595359775,-285.471506430262,61.7961313218751,62.65172901512,37.6079233151103,36.8280348522313,42.7006031720064,39.3319067241553,87.7198132653261,87.5929136576815,73.2775754280188,70.2956796098443,144.062689426196,117.819903155061,80.9667979283499,78.7846033656364,0,0,18.2498523909482,18.6686603578963,127.929292929293,130.586950586951,20.4770245988048,20.7886823850611,65.9973256279325,63.6150087613805,33.9851228056045,32.0510341351941,33.1322941383033,32.8842668701378,50.2530107011919,49.9902842779306,42.0401121830932,40.6726668589219,26.349028580539,24.863679315623,4.49664833627516,2.87677123353038,5.92775284459805,3.65448129051264,2.70184167932989,1.92759418570529,4.87107862153167,7.89847514494842,63.6150087613805,63.9923762434213,63.5319262622796,63.2775327985542,46.056982053324,56.1419987697163,9.52166657162951,13.9299363499314,41.1597744798791,50.9883071884293,18.8871551021654,13.2783683722508,122.272727272727,125.454545454545,21.5117990547768,16.3490510626346,17.81,17.81
SS02,RMT50,6,STIM,50,RMT,POST,SSV,3,12.4638094074263,12.7279083865301,14.0139227926718,13.815230771803,24.5163420448991,24.2964106443686,0.14705288844534,0.133480551412596,0.252389480128699,0.248238552341158,0.123321934381968,0.101735280824593,0.158456657732982,0.175596569847608,0.108250979034737,0.0965982700980543,63.4,75.75,0.41121809963473,0.395475802677892,0,0,0.775147861069446,0.77463430639701,17.6,17,0.587926411512529,0.59639154287956,0,0,0.821179089126301,0.834107217965521,25.6,33,0.757544827903915,0.768319888438729,-1.8,-1,0.895851460780057,0.905598815337297,0.4,1.25,0.916739593521273,0.910309802757222,-1.4,-0.75,0.924106505303468,0.941856724474538,-314.124367543094,-106.08630094531,81.8349187638347,92.4769359426981,-106.586813978223,-104.157072832848,97.8185787200361,98.8964709159833,26.6384772215261,28.7355156920374,131.786446651853,155.535415794591,77.8964905438095,75.3190826763515,15.0727644678668,10.8504903021855,31.6830101749465,23.1247778386723,120.987238061479,96.9560425887412,29.4455638147747,21.7169667910865,11.2875270294001,14.7725985434237,50.6291853770541,49.331093269984,-320.683993207662,-297.057224246786,83.3734287611724,83.7929395840436,77.6385211336668,1.01010101010101,47.8224556884254,48.2469958515122,39.5261880094719,38.5715572262867,145.757451388211,147.569127007963,121.355749465949,122.147613309768,-254.8955269092,-263.132405655212,70.5661109583178,70.942148455715,63.9458660357837,69.2810483943198,53.4342175389122,49.8930672770421,91.40085395893,92.3877801947416,61.5239329744756,58.2764079958202,101.451649264699,115.468362084126,67.7410500441903,63.8695100202872,0,0,25.6787833790628,17.5089313900406,115.785077667431,130.151515151515,18.293937758907,15.2719505970439,72.3836854403197,78.5565188307361,38.9046943888295,43.472233351129,40.999213049223,40.0793787950794,59.5350544962746,54.9704908529613,53.4988500672637,54.8773905881512,28.1141241420572,28.5437523046922,6.60071767065808,2.93199773097713,5.80476243384875,6.77511450945576,3.84983239379955,9.06460027405706,4.57301825907048,2.69162781094464,76.1785483979222,72.3836854403197,75.8329061463196,74.1845330257669,28.1026241176613,34.0491522824058,58.9220184570427,69.2454212454211,25.5995054197872,31.4773337804949,18.9726536126534,18.4249491664571,58.3880825057296,34.957264957265,16.5420898613306,21.8616154931767,17.01,17.01
