Subject,Intervention,SessionOrder,Is_Stim,Frequency,Intensity,PrePost,Speed,Trial,ANKLE_RMSE_JointAngles_U,ANKLE_RMSE_JointAngles_A,HIP_RMSE_JointAngles_U,HIP_RMSE_JointAngles_A,KNEE_RMSE_JointAngles_U,KNEE_RMSE_JointAngles_A,HAM_RMSE_EMG_U,HAM_RMSE_EMG_A,MG_RMSE_EMG_U,MG_RMSE_EMG_A,RF_RMSE_EMG_U,RF_RMSE_EMG_A,TA_RMSE_EMG_U,TA_RMSE_EMG_A,VL_RMSE_EMG_U,VL_RMSE_EMG_A,ANKLE_Lag_JointAngles_CrossCorr_U,ANKLE_Lag_JointAngles_CrossCorr_A,ANKLE_Mag_JointAngles_CrossCorr_U,ANKLE_Mag_JointAngles_CrossCorr_A,HIP_Lag_JointAngles_CrossCorr_U,HIP_Lag_JointAngles_CrossCorr_A,HIP_Mag_JointAngles_CrossCorr_U,HIP_Mag_JointAngles_CrossCorr_A,KNEE_Lag_JointAngles_CrossCorr_U,KNEE_Lag_JointAngles_CrossCorr_A,KNEE_Mag_JointAngles_CrossCorr_U,KNEE_Mag_JointAngles_CrossCorr_A,HAM_Lag_EMG_CrossCorr_U,HAM_Lag_EMG_CrossCorr_A,HAM_Mag_EMG_CrossCorr_U,HAM_Mag_EMG_CrossCorr_A,MG_Lag_EMG_CrossCorr_U,MG_Lag_EMG_CrossCorr_A,MG_Mag_EMG_CrossCorr_U,MG_Mag_EMG_CrossCorr_A,RF_Lag_EMG_CrossCorr_U,RF_Lag_EMG_CrossCorr_A,RF_Mag_EMG_CrossCorr_U,RF_Mag_EMG_CrossCorr_A,TA_Lag_EMG_CrossCorr_U,TA_Lag_EMG_CrossCorr_A,TA_Mag_EMG_CrossCorr_U,TA_Mag_EMG_CrossCorr_A,VL_Lag_EMG_CrossCorr_U,VL_Lag_EMG_CrossCorr_A,VL_Mag_EMG_CrossCorr_U,VL_Mag_EMG_CrossCorr_A,ANKLE_AUC_JointAngles_Sym_U,ANKLE_AUC_JointAngles_Sym_A,ANKLE_JointAngles_Max_Sym_U,ANKLE_JointAngles_Max_Sym_A,ANKLE_JointAngles_Min_Sym_U,ANKLE_JointAngles_Min_Sym_A,ANKLE_JointAngles_Range_Sym_U,ANKLE_JointAngles_Range_Sym_A,ANKLE_MaxPeakIndex_JointAngles_Sym_U,ANKLE_MaxPeakIndex_JointAngles_Sym_A,ANKLE_MinPeakIndex_JointAngles_Sym_U,ANKLE_MinPeakIndex_JointAngles_Sym_A,ANKLE_RMS_JointAngles_Sym_U,ANKLE_RMS_JointAngles_Sym_A,Double_Support_Time_GR_Sym_U,Double_Support_Time_GR_Sym_A,HAM_AUC_EMG_Sym_U,HAM_AUC_EMG_Sym_A,HAM_MaxPeakIndex_EMG_Sym_U,HAM_MaxPeakIndex_EMG_Sym_A,HAM_RMS_EMG_Sym_U,HAM_RMS_EMG_Sym_A,HIP_AUC_JointAngles_Sym_U,HIP_AUC_JointAngles_Sym_A,HIP_JointAngles_Max_Sym_U,HIP_JointAngles_Max_Sym_A,HIP_JointAngles_Min_Sym_U,HIP_JointAngles_Min_Sym_A,HIP_JointAngles_Range_Sym_U,HIP_JointAngles_Range_Sym_A,HIP_MaxPeakIndex_JointAngles_Sym_U,HIP_MaxPeakIndex_JointAngles_Sym_A,HIP_MinPeakIndex_JointAngles_Sym_U,HIP_MinPeakIndex_JointAngles_Sym_A,HIP_RMS_JointAngles_Sym_U,HIP_RMS_JointAngles_Sym_A,KNEE_AUC_JointAngles_Sym_U,KNEE_AUC_JointAngles_Sym_A,KNEE_JointAngles_Max_Sym_U,KNEE_JointAngles_Max_Sym_A,KNEE_JointAngles_Min_Sym_U,KNEE_JointAngles_Min_Sym_A,KNEE_JointAngles_Range_Sym_U,KNEE_JointAngles_Range_Sym_A,KNEE_MaxPeakIndex_JointAngles_Sym_U,KNEE_MaxPeakIndex_JointAngles_Sym_A,KNEE_MinPeakIndex_JointAngles_Sym_U,KNEE_MinPeakIndex_JointAngles_Sym_A,KNEE_RMS_JointAngles_Sym_U,KNEE_RMS_JointAngles_Sym_A,MG_AUC_EMG_Sym_U,MG_AUC_EMG_Sym_A,MG_MaxPeakIndex_EMG_Sym_U,MG_MaxPeakIndex_EMG_Sym_A,MG_RMS_EMG_Sym_U,MG_RMS_EMG_Sym_A,NumSynergies_Sym_U,NumSynergies_Sym_A,RF_AUC_EMG_Sym_U,RF_AUC_EMG_Sym_A,RF_MaxPeakIndex_EMG_Sym_U,RF_MaxPeakIndex_EMG_Sym_A,RF_RMS_EMG_Sym_U,RF_RMS_EMG_Sym_A,Single_Support_Time_GR_Sym_U,Single_Support_Time_GR_Sym_A,StanceDurations_GR_Sym_U,StanceDurations_GR_Sym_A,StancePhasePerc_GR_Sym_U,StancePhasePerc_GR_Sym_A,StepDurations_GR_Sym_U,StepDurations_GR_Sym_A,StepLengths_GR_Sym_U,StepLengths_GR_Sym_A,StepWidths_GR_Sym_U,StepWidths_GR_Sym_A,StrideDurations_GR_Sym_U,StrideDurations_GR_Sym_A,StrideLengths_GR_Sym_U,StrideLengths_GR_Sym_A,StrideVelocities_GR_Sym_U,StrideVelocities_GR_Sym_A,StrideWidths_GR_Sym_U,StrideWidths_GR_Sym_A,SwingDurations_GR_Sym_U,SwingDurations_GR_Sym_A,SwingPhasePerc_GR_Sym_U,SwingPhasePerc_GR_Sym_A,TA_AUC_EMG_Sym_U,TA_AUC_EMG_Sym_A,TA_MaxPeakIndex_EMG_Sym_U,TA_MaxPeakIndex_EMG_Sym_A,TA_RMS_EMG_Sym_U,TA_RMS_EMG_Sym_A,VL_AUC_EMG_Sym_U,VL_AUC_EMG_Sym_A,VL_MaxPeakIndex_EMG_Sym_U,VL_MaxPeakIndex_EMG_Sym_A,VL_RMS_EMG_Sym_U,VL_RMS_EMG_Sym_A,TenMWT_U,TenMWT_A
SS01,RMT30,5,STIM,30,RMT,PRE,FV,1,13.2067289218961,13.0671037722673,13.6923255575659,13.6338676399789,14.7205197087311,15.0306958556259,0.276512120517353,0.255034792390662,0.155374588036878,0.158773831271794,0.274398098504533,0.277214926412602,0.184913720724657,0.200850168299431,0.302396527682717,0.313304468076892,-20.4,-20,0.662828683481965,0.665869588081238,0,0,0.858080172067028,0.857804147467361,-0.2,0,0.886187399710331,0.882224867239848,0,0,0.785542636398041,0.818776127485904,-3.8,-1,0.860941975248739,0.860620826897274,0,0,0.786825191626986,0.792193885957763,0,-0.2,0.885651459149123,0.859145370138878,0,0,0.925158850561825,0.913826884320477,628.798171624392,677.376677529489,37.0646530952971,36.0417919994124,-17.5660814567853,-26.8711632682315,18.2302223220322,18.9437962775778,43.4045599117015,42.8343815513627,27.2528192255324,28.0210252694019,12.5750532977382,13.0211299757101,7.39955684824902,5.39197826270905,23.2592864410941,17.7987296464432,144.189056051125,115.013037644617,13.3014147811404,10.0056381311314,28.4645011421043,30.2463136613973,14.0520084857428,12.3469542697733,1632.0339450272,1502.61225564771,60.0023992705931,58.7701525169917,2.76502435834878,2.34845101008451,24.8109723561773,23.5985447691178,4.85982622254632,5.36914275667822,16.6696385722005,15.5632438476702,77.3390604234262,78.0031707022266,69.0877234226726,85.2520238251687,106.38104301565,108.133365968333,6.85377284406115,5.63147365278657,36.3802221259248,27.6213948886363,39.4663042845013,39.9254862936763,13.3337725846551,19.5761692847173,160.300553855702,160.216734594313,10.5690219834674,12.2832186372243,66.6666666666667,66.6666666666667,118.808687228222,119.271009332803,136.61392236465,136.428091934917,102.143913001662,102.682028311947,45.6110425314896,41.8735377606404,24.5734185181195,22.9220385742314,25.3231574161698,25.1674497875143,44.773279211565,45.5239451394588,30.12967900655,30.6887130085963,12.1557702276314,12.3102331394552,1.8253618039228,2.52053420566763,0.88843720269076,3.14328206110646,2.00663750240574,3.73711255652801,2.65199764171946,3.56752733487552,44.5743450826542,45.6110425314896,45.7527005029413,45.3390547205087,34.06465266637,32.9665945084324,134.765250218682,141.517892700688,37.8220607944189,37.3604692615471,143.67270040936,144.954708264032,78.6080586080586,80.6324813005007,144.006373600118,145.202586803691,13.66,13.66
SS01,RMT30,5,STIM,30,RMT,PRE,FV,2,12.9117825728316,12.6292059144111,14.0186502955372,14.2210453526416,14.1809327940843,14.2280755170736,0.22811994793688,0.231966563159064,0.173368220024118,0.167316781707099,0.278729596224333,0.286801603033316,0.216536445777536,0.200050968027095,0.343846525381728,0.34029776961781,-21.4,-21.4,0.793574814842357,0.829650743514945,0,0,0.844974374334653,0.837582943246331,-1.2,-1.6,0.892708895957854,0.891720442761523,0,-0.2,0.867236804904777,0.862921776870928,1.4,0.6,0.834089362087561,0.840894966400805,-0.2,0,0.791229700870011,0.793785816586737,0,-0.2,0.895126608423272,0.886672784518462,-0.2,0,0.867715622317209,0.884240957232683,144.374244125904,178.157783606299,31.320102386828,31.3443550538354,-43.2853353385485,-21.6632794653306,26.218012434356,25.9102656405711,44.7853602147377,45.0761182625051,56.857085088495,57.3245220937174,18.7984562353155,18.6611614649843,10.7087301658364,2.87744648781735,20.6334583275392,22.2299923133091,104.433091798208,145.772559167377,10.7754985004317,11.6309056831936,31.2802872826286,34.7761104397949,11.1524933670923,10.0297631403615,8250.53199898167,2096.06580656466,55.4218662554234,55.1851418046065,3.86195328573512,4.28734843285289,23.569826422821,23.8669327262677,5.64591851969864,7.68562960728284,8.15614483513925,8.38253845877107,67.4630651142204,66.9864497573509,67.5121854516117,65.3363242263267,96.3962228362749,95.6192273164066,4.6335325248132,3.92068210862817,63.7714520906371,64.2349044696628,29.8250175435927,29.7327156248022,14.2145968453089,15.6763644500797,130.169464388041,130.025415444771,7.94496748126388,7.5963421236503,66.6666666666667,66.6666666666667,121.592426108219,123.216580898786,125.662526495247,121.181475741362,105.268547350625,107.106660057285,47.5602457184458,49.0832568203884,25.3941131717229,26.3124575597133,25.2584195407727,25.5127927773629,44.5005155475468,44.4525385430738,35.4788291189041,40.433907576808,14.773492921247,16.8933015537868,1.09930093287297,0.546582701378384,0.622036433266593,4.01520307998048,1.66082943226246,3.77178186731024,2.7788677239085,1.9633164271174,47.147646348504,47.5602457184458,46.9188364835929,47.5929211724851,44.3814634438115,37.1001535382208,116.360666025471,135.875621566456,48.0151882347026,41.8327252278279,147.603548099154,147.660797077415,137.931697931698,118.82715000472,148.067134380655,147.884130539449,13.69,13.69
SS01,RMT30,5,STIM,30,RMT,PRE,FV,3,12.82615458906,12.7821668613703,16.1376590721219,16.4325504911117,13.1460514820921,12.8083734456997,0.230629178232589,0.208804283000651,0.186408878995845,0.207281566057327,0.329012984103218,0.32691571759366,0.227498049567585,0.22433749322333,0.343453772635201,0.35357104276975,-21,-21.75,0.691380691036959,0.676469624147013,-0.2,-0.25,0.813169101967416,0.809378707808004,-1.2,-1,0.903908971528047,0.902855840230528,0,-0.25,0.857045769906895,0.888395336715566,-3.2,-0.75,0.85317896610136,0.820934394238515,0,0.25,0.803576849415217,0.807390009385816,0,0,0.855594063088891,0.857465483730001,0,0,0.873244521597117,0.865395937354274,132.893232888305,124.506885403334,24.0636844234685,18.7070730005435,-17.3640485495396,-26.1367109967683,15.7393855908838,23.5256779928505,44.4927818420615,45.4437396280123,57.4099863972949,66.7175921301382,26.3415680692854,20.8839765591331,16.0040280792796,4.18443832882234,19.3980984417077,18.3781224622668,157.606906783377,113.316191587925,14.8066330384745,12.3505456698659,42.2057781349215,41.6350273886983,9.13102881659558,9.82974522459887,-3069.0679489369,-11173.2626022232,40.0359937017821,41.4610106673829,45.7973354164544,53.9455856348895,26.7273477644121,27.6881035925694,15.9567845010278,15.2436968262653,14.3872035032425,10.0712457486399,60.5302867025274,57.8802652480363,68.8001136396309,76.8085141840817,80.1375539443297,77.6840584153518,6.16283812623349,5.2336590168901,38.6219426631695,42.6538576183911,27.247024743326,24.2916255845676,4.59618809852158,9.57741229181453,103.507792207792,89.7912955813891,10.0741680259776,14.5646886793819,40,66.6666666666667,118.85218997427,115.960238116345,123.457542290881,129.21742340347,99.0940267226148,93.4255804850866,51.5891164904539,41.6424890211272,25.9399512444785,25.7316362583066,27.7382468405057,30.1906296480617,49.8062047774652,49.6854978199985,37.5852063266282,38.6940307092198,18.924249093816,21.4629789891004,5.31950926160761,3.07949630005511,4.03436457666473,3.17311562095819,2.78807306902638,1.53766545282032,8.26353471824905,3.74074155557263,49.7341412704923,51.5891164904539,49.92336175151,52.4812187822092,41.0334533243316,36.9471852486482,156.870888597513,167.089947089947,44.6807933190881,40.1550677829399,144.787569242299,145.738381018843,101.961956718474,75.8097632516236,141.401971835978,142.784032944232,12.78,12.78
SS01,RMT30,5,STIM,30,RMT,PRE,SSV,1,13.2424728275847,13.1267523205371,12.0745610086063,11.6015242433342,14.5915314677078,14.9380193087075,0.199302927062417,0.202837050159046,0.210659476043227,0.210522712717325,0.469295174128024,0.462042746961874,0.224573423549747,0.221410617915982,0.377700500418591,0.38984689596362,-22.4285714285714,-21.2857142857143,0.488383096270117,0.502516520147334,0,0,0.87193857580424,0.880337511679631,-0.142857142857143,-0.285714285714286,0.924665270858314,0.929161088976538,-0.142857142857143,-2,0.879274120002148,0.881543276499064,-2.14285714285714,-3,0.83969307109551,0.84487754103246,0,0,0.949142238099634,0.950886490357624,0,0,0.911165889252064,0.916556938267637,-0.142857142857143,-0.142857142857143,0.915022362128616,0.916622402293016,380.618968494485,387.206399845351,78.9505086054513,80.5294698800202,-88.5519623899904,-77.3650540696039,21.5422256277992,25.1100098903933,47.3556505407953,47.1886696305541,128.829892262194,74.5826444751836,38.6941328405432,39.1965484546186,8.62409973769294,1.31677930279203,17.9375701451352,15.3899385613394,131.65795790306,124.996694742771,16.3919938025897,15.1660909973886,21.6229534119718,20.6545493583538,15.2787662072578,15.6670115841235,430.821162541169,393.84507112751,66.8463870908396,66.4019478138,6.68630534105802,6.68689001464232,24.3432972780679,23.9646678560683,3.76559852788756,3.20619254440789,42.1782496425112,43.8802861744744,84.3449818822598,84.8792740342673,26.2260219349535,24.5671464029607,99.8014148850142,100.712582489018,6.25983800787239,6.26415271318007,36.5029564832067,33.320673447218,55.0396872924559,56.6287979284149,61.8678037418717,67.3102766434207,113.975367453793,104.147532205318,49.0881685308739,55.7105764652064,0,0,146.370634328107,145.695211988266,97.597906467269,89.4359634173874,145.746395675106,145.12325337607,43.9321416574998,42.620547674041,19.1994755932786,20.4106621751263,21.1894847253768,21.0415071633501,48.4531057782602,47.0839655896693,36.1496350825909,37.537231227398,12.4939745293098,14.0183276778199,4.94597492971453,2.37683491688605,2.35978128306534,4.0210096001434,4.47003417427796,4.61461237562848,3.06126207857393,3.88446462219273,44.1758592769171,43.9321416574998,44.8585687133131,44.4288160586112,51.2595786433279,50.7505842890276,111.558776299345,114.02371955167,49.2106463438246,48.9007002504938,117.622687463086,119.095527932649,114.992204510195,83.4428790730933,111.796183480991,113.457503405078,20.65,20.65
SS01,RMT30,5,STIM,30,RMT,PRE,SSV,2,11.9947234608503,12.0502580306187,12.333874223494,11.9964106515823,16.1573229856643,15.6693164301449,0.231730110044674,0.219060241522218,0.264013059412088,0.2593799910539,0.389438430252395,0.394237684396496,0.167422858731967,0.175662030468987,0.423113285208818,0.430933563169972,-18.2,-18.6666666666667,0.570588456411269,0.611535421142042,0,0,0.887564822370353,0.892328657110255,-1,-0.333333333333333,0.904874088103988,0.918457432594811,0,0,0.878455897256989,0.889514641325769,-2,2,0.808027069546906,0.824777238954701,-1.6,0,0.855702855212668,0.863046647455039,0,0,0.928784779968559,0.915488119024478,0,0,0.949094173990578,0.950960408971537,515.453790132725,-1130.33245833074,54.5520405007919,58.2586092164556,-32.6530530002383,-31.1833580333231,26.4473418048377,28.779603967057,41.2458985227337,43.3807876976514,88.1099591059401,59.739150567111,17.9971349963694,23.4734479294683,4.57032056648322,3.18807696207225,23.0960758198342,20.7999686075342,111.365987659153,106.856200653396,18.494039482238,16.1559702245432,18.8719749043134,20.8988934394812,20.3958008996293,18.4888586547111,883.01717850573,885.387802049613,63.6098626579616,61.1504034862434,5.62679460525068,3.21308654720237,20.2784896857811,19.6447991574622,5.56477209079293,4.42056875164874,31.3732293866377,32.1145985607572,81.6198812290422,78.7265225994242,63.09575343289,54.3680984913191,106.02082115403,101.753642477686,6.17437763299967,3.10103622338957,29.4045058883769,32.6920278191582,51.0796768292762,50.4057502394872,59.5464880996223,62.1262067390597,122.225135984214,144.21053573025,44.3898672624025,47.0342329786229,0,0,133.624977453561,135.974672270973,125.380079827434,134.621568367104,125.194689156227,128.488663564906,35.7068255427342,36.1443778959752,18.72190534829,19.3910461032019,20.1031885674987,19.9704173956661,38.272668538603,41.3563957102988,31.9749619237723,33.3118817275465,14.2483277536896,14.6668820266099,1.63341972452087,6.55241581453161,2.4793400562021,1.13810338231084,2.40540128972898,7.20155430034794,7.78723756348995,2.08155061966277,36.1443778959752,39.4451754195437,37.4909287134238,37.7707408833692,30.2633928234061,29.7139906395423,149.084596191143,143.913437510998,31.0127864514268,28.5034815005343,137.270073886041,138.507069497158,135.590791085937,115.096765569174,137.787053733362,138.922521361714,16.09,16.09
SS01,RMT30,5,STIM,30,RMT,PRE,SSV,3,14.1065772665526,14.1401323751007,11.7177037319724,12.2267302213152,15.572433151929,15.8728146641464,0.234726144138004,0.234710877867102,0.207178029748629,0.234626146042841,0.339725534431876,0.330213156458404,0.194998293189339,0.199814141109267,0.350894265387977,0.344563643353026,-22.2,-22.3333333333333,0.550606268099358,0.54970679453744,0,0,0.88167830273882,0.867057200051903,-0.6,-0.666666666666667,0.910916498015215,0.906287848711622,-0.2,0,0.846225445738485,0.849930508731995,-4.2,-4,0.800338848941394,0.77299047129007,-7.2,-4.83333333333333,0.826910514751624,0.828970790871709,0,0,0.932609645205394,0.909971881154901,0,0,0.91614899667577,0.922922991052356,1013.29799661118,915.69869103497,57.9096152899585,57.7253938824501,-33.7730894970246,-31.6339760460378,19.5073213531601,19.8701017132524,46.6205788774596,47.9481328780273,114.701945807637,98.2108170238756,19.1617285128035,14.4687500096758,9.55953270339392,4.14482031383451,13.3700669355068,15.106836539185,124.177825444642,135.381366199638,14.3266208825908,12.6617288962224,22.3126355934609,24.526419474842,14.1948967888125,16.2950938591274,1771.88682111226,629.422093162283,52.5743513235936,56.3456109017359,3.82996861175229,4.22590964225912,21.7296173785734,21.6249832164271,3.59131057336035,3.82000035253473,32.1031629165598,33.1330112623813,81.2955665380547,82.6926881400058,28.0823790241284,29.2146641399494,101.204602928297,102.941252160325,3.82374340131837,4.96903903859095,35.2045802895504,43.9472761731265,51.5381466934465,52.5327847570606,36.5402332345749,43.6254754118218,115.37318699759,126.56565862211,28.0572759906413,36.8786914870804,40,33.3333333333333,132.354352360429,131.804203563694,128.289935424487,118.453124317312,122.485342594171,121.86725166767,49.1780722162548,46.366750480173,24.8245469842088,23.9819314396777,23.9832927369213,24.0412792586972,46.1519775039931,46.6736073344901,34.0264073827907,35.1174287740498,13.6886987980098,14.2302414211696,3.71368540677135,3.08170915073087,3.98472722956974,2.65244452830608,1.50883410196771,2.77243485042646,6.77346306789544,5.67523513542124,46.366750480173,46.4984323635845,45.4459319171855,46.3479606219429,39.3465726616792,36.5402603783337,146.384095572222,144.361630154603,41.4835223724619,39.4935743815692,143.908316055071,142.888092315884,94.855600539811,96.4173315472467,143.554516159444,142.80442060634,15.69,15.69
SS01,RMT50,4,STIM,50,RMT,PRE,FV,1,12.0759459254978,11.8054616228494,12.5422594756987,12.2689361392552,15.8678943769476,15.8859627254122,0.164073143361742,0.170437562897053,0.226014364867344,0.231181685201785,0.197438602670127,0.193049561500238,0.275441234333448,0.268569101963022,0.177855826767374,0.173689887086034,-22.5,-22.2,0.583230019788197,0.604322104704393,0,0,0.760351652302264,0.774717071887896,-0.166666666666667,0,0.92275825921025,0.927082717553966,-0.166666666666667,0,0.87816484519441,0.863131380185941,-6.33333333333333,-7.2,0.790228327637127,0.766849097228027,-15.5,-18,0.830401555781744,0.843058989799076,-2.66666666666667,-3.4,0.79414531194173,0.789209743306317,-0.5,-0.2,0.876231101613375,0.888529801440085,490.959665584381,619.227794409758,68.914491518742,69.166401957232,-31.3382241824417,-23.5788488439137,40.0328185072776,39.7317969990298,44.5225681370846,44.7499556397742,76.3237108633529,87.0745566440157,40.2055254913315,41.8194244271841,9.57094511183441,6.0139172251774,27.8061957058515,26.3852186816962,90.3751345186603,115.862999674252,22.034510669216,19.7196620033494,27.2407493136701,25.134199568852,33.7186253932418,32.3924265007362,-263.104991430296,-304.46115886,71.0535472240532,70.5405716915278,35.7557938598939,42.0656422222735,21.620103770107,21.4935142763467,20.1860229732745,19.3348942657198,44.1445631897298,45.0102434527168,88.2509409219393,87.2740886826373,27.5508575975489,31.4409828577767,102.383361044995,100.146455319819,4.02392706144208,5.4977845926942,27.8864815300823,23.3856814501976,57.4648496840436,57.5508033590312,26.5446789872502,23.8109571351451,150.345068025066,149.621147450362,21.7326928768299,17.8538949481477,33.3333333333333,66.6666666666667,95.5956409762889,99.3336430798367,125.93260166073,117.545912644747,91.0577234043537,94.3670727516556,56.9683353390773,57.0717242358297,31.4346159385867,33.3180723737261,30.5266276358973,31.1482124239244,53.7225855213182,53.5405706467764,27.2027810318087,25.3009333798946,6.66161543885016,7.5448369866337,3.06522135474125,4.38484930832874,3.02045647526951,3.59769615779301,3.56361133307131,5.43271527537162,4.38927241182011,2.84800293772642,57.292758999281,56.9683353390773,57.9568018736537,58.0633038298692,68.6045510055765,64.1016668851432,116.844346471319,111.435177941202,50.8417912810816,45.3666057587589,140.571321573442,140.110172794431,53.0731337627889,48.734394124847,132.383873726337,132.746053803501,14.88,14.88
SS01,RMT50,4,STIM,50,RMT,PRE,FV,2,13.9701616187042,14.2371403014957,12.5061692878323,12.7247680969785,15.8170192215997,15.9556333036625,0.185574973109595,0.179497493465952,0.249765783503785,0.253367722976034,0.346993569420474,0.32820498515935,0.253896052645471,0.245200951474822,0.296290074195843,0.296455172688206,-20.5,-21,0.450169721181089,0.457078953903025,0,0,0.756474621577696,0.746592205210824,0,0,0.918519006288872,0.917540318410614,0,0,0.878515644879717,0.877783172393089,-5.66666666666667,-1.16666666666667,0.824618780522579,0.818217510475889,-4.66666666666667,-2.66666666666667,0.787160254929302,0.822962390968121,0.166666666666667,0,0.865408560328193,0.856345179198936,0,-0.166666666666667,0.865068347497139,0.869855259395228,-1475.79814870967,1603.41906681466,71.5523594936164,72.0527869837724,-45.5952338879941,-34.7067110550439,19.3812619323024,23.9489226014085,41.5997890997891,42.3012108710564,73.6210553030705,48.640069062064,13.2689778457196,15.4863298558158,12.3045644763116,5.14172660140467,21.7189391547577,19.2179163704593,115.380146368467,101.375843578639,17.8425188554129,15.0177708871669,41.262534350997,42.5871865132201,21.9768661778784,21.7923643959223,-359.62426728556,-348.426293195324,67.2306408268117,67.400649998376,8.90887681102129,38.932579548413,17.530886905239,18.2525437728895,10.7382221570084,10.8002313184852,41.3971275690126,41.8781649223142,87.8316170837827,88.0965925752585,13.6935015404252,13.8022859733655,105.789108461731,106.255665262716,5.1684812393885,4.97573945427755,31.6828857253417,26.6847640457722,56.1336790777313,56.4330753897428,20.0299050553528,18.781718224164,139.358071804675,141.408947975674,16.0641628786358,15.6703223785248,33.3333333333333,33.3333333333333,114.288361149635,120.133878129769,88.5932150638033,75.2989000478241,93.3622970417868,100.933165537454,51.0914079915816,49.1434968006477,24.1811396631014,25.5338215464679,24.9628597074294,25.7384159207708,47.3579496919585,47.9974853792633,34.7615344791197,36.3849083071634,11.9522192749203,12.2060719666826,2.74512992541096,3.59471095035456,3.64120320708008,2.46221874935755,5.41459264031615,5.07841180734997,4.03795933121418,1.41723405325812,49.0971062568815,51.0914079915816,48.5381570856585,50.8858920131087,46.7085892782156,43.0767623544529,130.134907464239,131.127194494335,37.4682461932693,34.0449972631993,125.257915491011,125.712173985583,99.4293044320532,95.7860459848227,110.405762667415,111.19611053808,15.16,15.16
SS01,RMT50,4,STIM,50,RMT,PRE,FV,3,14.4908667894202,14.4425045194103,14.7466700951348,14.9310949763405,15.2585976571286,15.0150287278682,0.216911649199565,0.219592948016532,0.198292462717286,0.202173117791012,0.273414116852373,0.277126669659322,0.261053855989699,0.256589274367117,0.339009048380184,0.345778363077248,-20.6666666666667,-20.8,0.487305783476133,0.504114714134272,-0.5,12.6,0.680655474893945,0.673517554067081,-0.833333333333333,-0.8,0.91173800618779,0.911127347458552,8.5,0,0.816245588029902,0.813696545811433,-0.666666666666667,-1.6,0.863633451089736,0.867433382311523,-2,-1.6,0.780219374452573,0.786376239210232,-2.83333333333333,-3.4,0.855913196442888,0.848268434461598,0,0,0.956782980905152,0.954360328779337,672.509302308864,918.05043092946,72.5749143118293,67.7762641115718,-22.3253739562601,-25.6530847301598,30.0413346006354,26.5219119840977,41.6252596076255,42.0810985039742,24.9220253187668,27.3472672538951,37.9218868408665,34.8754145795324,7.09873365284714,2.71828407100717,21.7978562064482,17.6643884532403,133.791375869591,150.283384989267,16.8385451530294,15.0320362706498,57.0047044148606,60.9245554709952,19.1846148805763,14.9401909802111,-264.711794627044,-272.017670051521,64.9686292617866,62.4069086712292,38.8401349382988,45.2988253798332,17.2849225475268,17.2683170609817,11.7796739769253,10.2698484016317,36.8827092385791,35.1039297774213,82.4484236005459,82.706894291166,24.1809266204746,23.8826181349438,94.4392985570313,94.8309684441579,8.41160493417282,8.18658351499765,29.8007764313066,31.8811892146346,51.8191738207167,50.3988150457025,10.3446950875292,11.71010428676,106.381772418109,97.9003063213589,20.8492870245919,21.4591441101116,33.3333333333333,40,118.701057901656,118.287158356979,96.2285342916125,80.8639174253859,100.723893968621,100.813924390356,51.2750675237578,54.0454068997568,26.1339195932194,26.8806269560521,25.8714683197461,25.5754872394508,50.843273403229,51.4105939395369,40.0033601383403,40.6462720037749,15.5136191885262,15.6640286341603,5.18197963878838,1.27514068465348,4.82068278308607,3.58312944288565,1.20861651180854,3.74429350251101,2.76453424513564,2.66156270749244,50.9568421983955,51.2750675237578,50.4295894507152,50.646440345983,62.4797305232524,61.435354393019,134.446263457672,144.279158904807,54.7718000788744,52.9790369578958,153.272615354074,154.00883676291,52.5719275564476,62.9066372224267,155.117762358634,155.67872551811,14.13,14.13
SS01,RMT50,4,STIM,50,RMT,PRE,SSV,1,10.7864672667835,10.8771335864555,10.855365361658,10.7085380324836,15.6409898460104,15.7864128341513,0.16968655608977,0.177490230995317,0.215736025636812,0.216288042985869,0.138048177794243,0.145317281933697,0.235310605647939,0.23603502160969,0.148060643352021,0.147169247311559,-20.4285714285714,-20.1428571428571,0.603424783908338,0.607815278721542,0,0,0.848051297687608,0.851966692518253,-0.714285714285714,-0.285714285714286,0.925136492063613,0.924942401804701,-0.428571428571429,8,0.76600292296845,0.768464641498552,-33.2857142857143,-35.7142857142857,0.739997368826271,0.73900658876647,-23.5714285714286,-14.4285714285714,0.75300071983054,0.748999337122578,-1.42857142857143,-3.71428571428571,0.7874645294298,0.791219468984092,-0.857142857142857,-0.142857142857143,0.839963679779912,0.847314795917964,446.329846947665,383.50396292218,66.6309991795849,65.0110375936511,-23.9256042804763,-22.6304663089624,31.5069782059348,31.9250432536225,45.5597874911534,45.5561172616035,116.166684297014,93.3879002838268,35.6670779672786,33.6781256130517,17.2522283889378,3.84353429845916,18.9192312718873,21.2956719735224,120.701292010589,127.358911622889,14.7353797877487,13.1810544072612,14.4557716599969,11.3463796376601,27.5178681752105,28.3253023778594,83.0199571918617,1579.2121454086,65.9845411575545,66.4784360793425,29.9701766231963,32.7549957372275,24.7603904659563,23.7046606980684,13.0434186129148,14.0588972945747,50.2098457274735,52.1846406694562,88.7806489719337,90.5086117772461,36.6903192765318,38.2355981444746,100.87942028122,101.750385537494,7.5014715634337,5.33621517539743,34.6771545787693,31.1680857123686,61.440515035124,63.2448678482857,22.4766777280561,20.6620592938838,160.63433758449,159.813331090273,20.3844235377985,20.5834417614618,19.0476190476191,9.52380952380953,116.403033965354,119.192068286037,172.364484392597,171.640483322126,109.53463946505,111.850807948141,48.5451152762379,49.4682068800528,22.7146483065417,24.4469328127971,23.9766629449257,23.2129989530545,50.531413952364,48.7151592289999,25.1882257165602,23.0337711798444,6.75232180863693,6.14140985397616,4.25731362692964,3.9975564350903,3.46424755551944,4.34563157534435,6.59986009764769,5.59218268774859,2.80184515800296,3.25057468134693,49.4682068800528,46.9806680885476,48.2995853273029,47.3018597870532,74.5038156388827,72.1529455418322,143.669348498207,148.651816282068,58.8329290905693,56.5437546083252,152.284908421523,150.173543669252,70.9797089567535,93.9249797101673,145.564027089346,144.134723537411,18.56,18.56
SS01,RMT50,4,STIM,50,RMT,PRE,SSV,2,12.4306671038602,12.3113043458814,10.7676641193332,10.6091550031168,17.1333706425378,17.1428802845801,0.208980439605269,0.216812771785833,0.229225846255238,0.23244188587127,0.169842141870747,0.16960721624647,0.205592059174882,0.197910431641266,0.155188058527706,0.15465004414549,-19.8571428571429,-19.5,0.518650461149403,0.510050566847282,0,0,0.834667754257805,0.841687179918798,-0.142857142857143,-0.166666666666667,0.923449528193539,0.925521261132439,-0.571428571428571,13.1666666666667,0.743541646779172,0.726554747660464,-13,-19,0.755186459175524,0.75947421337515,-41.7142857142857,-37.6666666666667,0.733014491160687,0.733703128398683,-2.85714285714286,-3.33333333333333,0.818657474825706,0.81615946826538,-1.28571428571429,-0.833333333333333,0.803021468412438,0.806634382572379,283.242913535488,895.115954685412,60.0202413336228,61.2940896199597,-12.9384743534434,-14.0011295698074,29.4305001856711,31.6830718423898,47.3606230122159,47.4987838879811,23.7146296936157,22.2068910482836,16.6907953296333,19.2653377686448,13.9154793312596,1.73135040380986,27.7484041978269,17.5381277618127,106.077031212126,110.174721733861,22.3997404844092,17.202354845783,20.3666552661603,20.1584868887848,24.0393529910681,23.9111748594035,-394.823886432727,-409.765785604721,58.5114747675262,58.7074359570129,4.37117885056842,4.03378687928773,23.5017462892727,24.0392901340554,11.939058871998,11.5135561762098,57.1871460055852,57.843968850888,97.297492948423,97.4562853318853,57.418801908988,57.2781662065091,104.39423052445,104.460299051999,4.4773917945588,5.59384804124756,35.9225001624727,32.227794311958,69.3350212678538,69.7935081238195,36.4958360115455,36.961138483809,147.632440774346,146.961856121307,31.0172287153375,31.172820556982,47.6190476190476,44.4444444444445,104.484711788857,106.064139633044,171.18587271315,171.462554115702,93.3818109369289,94.3291049865065,44.3683129575404,42.7573187933354,21.2431247730608,20.0609050367474,21.3990516105775,21.3371330568429,48.0366636466921,48.3026240980927,35.1273716851684,34.8435692054569,12.0529117895959,11.6658686851909,3.73000635683021,4.57074053603363,3.05847741877434,3.7369205900364,3.82750872189027,3.64249019770168,3.92732595373985,1.95716798537864,44.6033142950192,44.3683129575404,44.3790027131182,44.4059290170344,65.9183746207463,63.4264708527876,139.720218964882,139.917789036563,50.0047844745058,46.5596497497851,144.5556065556,144.34147736678,99.0651395693412,91.9945250827602,136.006233554804,136.028135712393,17.47,17.47
SS01,RMT50,4,STIM,50,RMT,PRE,SSV,3,14.8747885397443,15.1527792330006,11.9194343570692,12.0483124904021,16.888316070232,16.8446694805772,0.15910457922663,0.168319510502203,0.223370622587729,0.22414283799924,0.151703362305943,0.147899454296739,0.161798159334228,0.15937130858588,0.131242025701869,0.12744994654215,-22.7142857142857,-22.5,0.364867483895984,0.362930712437174,0,0,0.783876520961011,0.779491820952427,-0.142857142857143,-0.333333333333333,0.916282339792834,0.916097548205726,-1.14285714285714,9.33333333333333,0.747643050609042,0.722584969280784,-24,-19.6666666666667,0.74289812320576,0.748679161251175,-42,-37.3333333333333,0.70603835892081,0.698617694747797,0,-3,0.790858769746305,0.798535967557451,-0.428571428571429,-0.166666666666667,0.811092163619769,0.807169106452633,1265.41077054505,265.97054816386,79.5717921419915,78.8200411886616,-42.7159296312746,-40.0222145169352,26.4872011994497,23.8955278478208,48.962385719655,50.1079806995038,70.1977984615674,78.7899682506979,20.2101403100573,15.7485693860145,8.87990432922463,1.48868400120665,11.6629081027106,13.3981280883089,145.84476790789,117.793947025141,14.6334924302205,15.1309657096508,20.1282969175372,21.3309579743507,29.1385311295674,28.2697868848708,-389.930640787773,-418.893971531004,67.058168916907,67.7688067565627,87.225240381181,69.7766183384518,28.0605337673308,29.215845933148,15.1659555704523,14.0406175233285,62.2531926747657,61.7416248444551,99.987331039562,100.050261356469,58.6849531000559,57.0299269207007,108.102468729768,108.616554336991,5.40231084503214,5.31628555086521,24.7960710102038,23.443675889328,73.9065633221827,73.4627741648493,30.187851025797,35.6224724059648,156.38182129953,155.604994842599,24.3104044840431,24.1290561291725,33.3333333333333,38.8888888888889,108.954323555507,109.615111046801,177.516699913605,177.954011166618,104.108396619718,103.611178514523,50.7376196746739,51.5052763849062,23.9757793798156,22.521200818373,23.9866429265376,23.0051887257051,53.8002716413498,53.7368422477083,31.2139263336186,30.8510755714397,9.18203957227809,8.96959039241672,1.79673153178545,1.00758328072456,2.0015366468763,3.63644296100042,2.58219671327586,3.22490593016128,1.93657745092766,2.67297707929476,52.7565377073848,50.7376196746739,52.5675363443237,51.343399544702,52.2362838285818,50.3370665374624,131.571293747525,136.039058803286,35.1874167170783,33.9036848713487,147.054781385488,146.063752970154,70.5525287037891,66.8339563076406,135.056086343117,134.237760811975,18.43,18.43
SS01,SHAM1,1,NOSTIM,0,SHAM,PRE,FV,1,11.9105977446931,11.755064396133,9.96902659230842,10.0393408595008,19.4695900898032,19.6242903864585,0.267319756953475,0.263286557723917,0.17342139724655,0.174922719969936,0.195908329381109,0.194171755807738,0.194366662614011,0.195708484038054,0.167933559819391,0.171708348407295,-23.1111111111111,-23,0.451051953668204,0.464398242364419,0,0,0.876200423551821,0.875036027172085,0,-0.375,0.924760420835625,0.924524912249145,-0.666666666666667,-0.5,0.802668983901191,0.805201857252642,-9.11111111111111,-8.875,0.787241251701156,0.77395866629372,-0.333333333333333,-0.25,0.843571102339725,0.862435010986056,0,0,0.853275038687571,0.853313678172401,-0.333333333333333,-0.125,0.886299570373385,0.877740614718439,252.33466623784,265.646737717781,78.8322300556872,80.2499455804417,-99.7489012075331,-107.027189461214,29.4794577579133,30.8186157416272,52.6542867852351,52.3905497247941,59.9299296119962,65.2477868427268,55.3405053489012,56.5892138373725,9.44421253741034,2.39838033194356,55.8746576871875,54.3041145969525,107.258741369785,99.5436721860468,42.1197565946598,40.9175278652724,5.16147179139388,5.20251098958729,26.0877475858073,26.3515526827529,484.531657595562,501.249851959238,61.8533713099289,63.117977699567,5.1627022755997,4.41837231686982,31.7754622008835,31.1726107953667,14.5197097961416,14.8771555646592,74.7660628520759,75.3381204376202,109.321581666069,109.920572028488,74.5938561918833,69.5134080321021,117.735014147654,119.486506980698,5.31986895829494,6.41259805447992,50.8249456514954,49.5573543822572,83.872811858952,84.5576302302819,18.2826614040596,18.5926923303739,166.278816118378,165.829651653064,17.3458399335215,18.5932356476178,59.2592592592593,58.3333333333334,60.2183764017116,62.0901386512121,114.08269131553,110.475994162316,59.4117135000152,60.9237708272762,51.2902109791811,50.6624700216059,22.7589706600592,25.3185895124556,24.044788206159,24.6424324442885,51.6704168015373,51.4595574151594,51.0176197709393,50.9095914203088,16.1971497988129,16.459757012829,4.14665032930297,1.67048718654397,2.02763374443816,1.37223785328724,4.09622381364676,2.21131954406103,3.42850671081675,3.47585800272638,51.3368651462931,51.2902109791811,51.3268940743213,51.8436189320667,50.6952666630737,50.7362780619604,102.867747922214,68.0522088353414,41.4210238695367,41.5122345940959,49.4726508904625,48.6694339973507,50.4761904761905,53.0672268907563,39.1388669148276,37.9441770566206,22.58,22.58
SS01,SHAM1,1,NOSTIM,0,SHAM,PRE,FV,2,12.7093264793316,12.7071788484938,10.215297420951,9.97530211111289,18.5714987807046,18.7021619900477,0.252289443908539,0.250474266712281,0.199857462813545,0.199742606616863,0.203430042121415,0.199657643111887,0.238414513650044,0.236005792944083,0.230166343064818,0.224999292597739,-26.5,-25.8888888888889,0.430829351673452,0.435005282605442,0,0,0.870257964526456,0.875491675605902,0,-0.111111111111111,0.920950040156327,0.920347981929262,2.375,-1.55555555555556,0.820213104012739,0.812647584515968,-17.625,-24.4444444444444,0.760323057046583,0.754860789785905,-2,-2.11111111111111,0.861720871464013,0.872988045766075,-1.25,-1.22222222222222,0.838371566828495,0.834130377519619,-6.625,-2,0.825388028834365,0.836210752304568,300.369703269815,324.707262951944,81.908912921183,81.3239311136559,-114.283623990855,-115.283066783824,25.9490841628842,24.8833181694867,54.1087132362349,53.514679790992,95.5062468913067,88.914165101123,51.3575485235526,49.3351936795965,12.1413205847818,6.0460871605598,44.2687876192362,41.0274879695803,101.296695265898,80.8209403570994,33.0939275545777,29.2781622492691,6.1230784339673,3.96334712101323,23.1628349888832,23.9530144626402,418.703556229616,420.311701858725,55.5478944584622,56.3171243270684,29.3615196140321,26.1988891889694,36.3172668935039,35.5281762423613,12.5559394035787,12.7111273925993,72.089302071853,72.4184267058397,106.661768462553,107.076152797941,78.9120280152003,75.7125954908374,114.322347611196,115.72823383039,8.77871274732425,8.97645445449193,44.3214185765503,51.0993831751754,81.883232120506,82.3671783585699,14.0139718700588,13.4402922326998,154.271845053482,154.213288799476,16.6577347430568,16.3516494064343,50,44.4444444444445,62.7942950193415,63.4306697159057,111.053232031084,74.4975272718816,59.3834331774716,59.5365177524984,55.5840685458598,57.7155682461492,27.8516455954694,27.8852589821424,27.9340730759741,26.6115692455033,54.9790450942747,53.3815551353917,42.9550291301463,43.1580632807001,11.7998279507345,13.0334435996021,2.06140677288443,3.06691960780317,3.08927807633274,3.43898212651231,4.8932955353379,4.076714654001,3.14790337513739,3.21317578567516,57.7155682461492,54.5452985635883,57.2866391953833,54.9381255473871,67.9647151284043,65.9645198918676,92.245432410861,83.4774214022468,57.9995544599212,54.4390301234171,59.0760247964806,58.3494919710498,80.840223310216,73.0985877636934,49.102650625216,51.385081895634,20.64,20.64
SS01,SHAM1,1,NOSTIM,0,SHAM,PRE,FV,3,12.4827129525729,12.617601964518,10.885633875804,11.0789185294488,17.6667131622314,17.802341145334,0.240652794936599,0.240646215932857,0.182697805235391,0.18117699430481,0.17344183090188,0.176697266759633,0.185448410194032,0.192595539507299,0.177563060354273,0.190219466120412,-23,-23.375,0.520293610390064,0.506171380176094,0,0,0.864023585181745,0.86195284961309,-0.125,0,0.921675741027756,0.92193880626078,-0.75,-0.625,0.813198993820301,0.812613184246477,-1.625,-4.375,0.792803617499894,0.793710586956377,-0.25,-0.125,0.850895941585781,0.863426481598966,-0.125,0,0.840703293397279,0.860404641126313,-0.25,-0.375,0.837000447627757,0.838086842934597,314.508767850672,319.447974583307,67.6161634830433,68.5129313400613,-57.5414208482831,-54.0368670773181,25.8969225896417,27.5994245885163,51.6129841608055,51.6071624846299,87.7003446860853,87.6193411340145,32.0924108948805,32.7897314833254,7.1368436036769,2.87716096511073,48.349044513562,48.623938781804,101.146509979991,121.025164703637,33.1699196602026,33.5430855181698,10.2697132866235,11.7488209929038,18.0936156353727,18.8569300898726,351.268042902288,404.547269639062,53.477079704118,54.7603262727335,5.04478101068166,5.31466011494624,32.5164405466679,32.6910112115985,5.71599957616362,6.31848119194485,60.3798328932,60.6473585250164,100.157267596201,100.474806881804,30.880247588616,32.5854373861216,117.333122580434,117.799087979754,9.6534123469631,8.465549655192,33.5591058981562,38.4922910598369,72.2273509540968,72.6149078033708,17.9759292837638,15.3186087178085,173.548425028465,175.279447432019,22.3661986375249,21.4549099674194,75,71.6666666666667,54.3322285084497,57.5899541436229,130.016714134072,85.720192278698,52.5303474302618,54.8351012684291,48.5471594812466,47.1763505724394,20.6705652164513,21.8622516630433,22.0407338715675,22.2232744413639,51.3372514116082,50.8726224714983,43.6012353323912,45.0883225609471,13.843630433672,15.0494276995743,3.00945041379358,2.77026371880058,2.19183802939656,3.02217982558484,3.61012572169283,2.68765317388433,4.37875109817091,1.85612351726477,48.9386204763747,48.5471594812466,48.1182151029119,48.7723915866993,53.0993725269903,57.3384798566157,124.260407776999,58.5741652983033,41.3190700327357,45.7333015797424,45.3117198840768,50.6248937133197,53.8149688149688,40.9578259578259,31.759360872632,37.4604722267961,20.83,20.83
SS01,SHAM1,1,NOSTIM,0,SHAM,PRE,SSV,1,9.25114010047895,9.39752854968987,9.63191200094534,9.65540884022722,18.2866531230964,18.4977015113493,0.224679941444042,0.226784350068768,0.162154875952936,0.143098696889349,0.174195551767784,0.17265331811852,0.248472502555419,0.251037291678784,0.185571996008451,0.183999581669677,-21.6,-21.5555555555556,0.793149538019027,0.78856125621921,0,0,0.919497655747666,0.917358429877767,-0.2,0,0.931938027459068,0.926410690608195,2.1,0.555555555555556,0.802617942962729,0.798784352771385,-10.4,-5.66666666666667,0.792009536369421,0.807700535006783,-8,-0.555555555555556,0.812574740261387,0.816329419783909,-2.3,0,0.835871182088497,0.847759094800797,-0.3,-3.11111111111111,0.841041620164605,0.85118240490883,108.097322244586,113.264530922562,88.2616570830887,86.5966657241897,-123.533702048781,-137.539922574769,58.1937368331144,55.3312607882032,47.1984692588406,49.9619198560666,134.324701837373,157.010311980003,71.9511808759482,72.2730710378495,8.76118285911208,3.14281130192711,22.2337720465006,22.4351446074298,106.527353332931,100.357786222915,17.1262190102602,14.7076810824955,12.6800551813912,11.6460186651214,34.5206618703145,33.9717576679183,153.84183214666,160.785406965517,70.8344924100071,69.7527787518512,2.77643203604393,2.96610627407929,24.1267391246546,25.1614431211236,21.1022358855073,21.8434837258092,69.2611334893374,70.3536214782611,106.782249425955,107.997496981293,51.1612142031799,50.8918021891736,120.440679310807,122.001191209306,7.97134287352755,8.82098900493245,36.375955589474,40.8919848697794,79.488912942442,80.6244306766737,16.0750169953489,13.9719133487869,163.832540672378,166.116574952191,17.6340294430822,13.7142740660586,60,59.2592592592593,52.8246858589472,54.4158404569582,155.776512576748,155.32548025162,49.6475395768389,52.6147050864537,46.6044400981783,46.1703817880702,22.4632947484641,22.5005657360133,22.0134642560002,22.3039801665734,54.5018116453698,55.1482120642267,44.7396516428671,43.7287449162789,13.5230382638733,12.280908753154,4.34497269877398,3.89626830272826,5.65292821283223,2.99806192831201,5.04011983558851,3.6850742546707,2.45383153167795,3.46965103137189,45.53028885422,46.6044400981783,45.8450534246984,46.5502961327833,67.1945705357172,69.9350002258518,112.643792074044,103.820824578657,56.3620019519647,60.5201772121702,51.5267322087638,54.2661175231479,76.2502677502677,87.2180284210359,44.3370535833727,46.9088700846902,26.03,26.03
SS01,SHAM1,1,NOSTIM,0,SHAM,PRE,SSV,2,10.6502675929939,10.7281971274121,10.0896716739446,10.2094509370769,16.5134155501007,17.6371073337168,0.221849177157373,0.211647170009943,0.160398939951414,0.158301774153575,0.162447555750858,0.156641551488035,0.193243534689184,0.193088411796945,0.19012681796353,0.180418646305908,-5.625,-6.55555555555556,0.339745184881505,0.345861994443995,0,0,0.907338660443666,0.909795685466471,0.625,0.222222222222222,0.866400798470615,0.866292992249633,-2.75,-1.66666666666667,0.78585012595831,0.807353396317479,-16.375,-16.2222222222222,0.760892974403179,0.773108361207069,-1.875,-3.44444444444444,0.841970101040396,0.845010209245573,0,0,0.827399174480683,0.813081824575653,-0.875,-0.222222222222222,0.807006368665999,0.81918689324094,261.497910591099,257.295908372552,59.7583782874596,63.6165235996492,-152.022183873936,-142.557290058353,29.0342221485058,34.4107707414781,19.4637970467973,21.6609270280751,116.607291130514,123.337262576281,39.4344795988648,44.7959384969324,8.09350533693075,1.88214963561192,33.7208643104386,35.4545201604678,87.4557788936719,91.0596225382682,22.5053549672765,24.1308015837682,12.3994721040748,16.4738833910635,34.3721235149975,35.3271254385815,174.791702438062,175.896626869413,69.2266731733253,68.5743139661579,4.248964961352,3.7871349155638,32.7663006680047,31.5050073326433,22.8001107188522,24.6802094523573,82.9430544424893,91.5812625485178,67.9204720030074,77.0704043308687,356.605048874987,-385.042017209932,41.334247842905,51.3379746365339,6.06157037166144,6.28611120050703,61.1217306817577,58.3322909950064,58.8145284220224,68.9076076863979,13.4255454564808,14.044874328541,170.936983694342,167.064426493773,14.0499978128825,14.1881530138112,50,51.8518518518519,59.0953016780906,58.1447339844014,161.938497949135,124.509772573506,58.1143801128277,56.469451157218,45.4472894726556,46.8373337496643,20.5721753061352,20.4464141043995,20.4589750149835,20.0002106863117,52.3392548545539,51.43555238195,49.3460009761149,48.448243006143,17.0312809526173,16.5505613011662,2.77657793407416,1.69613762008175,3.34103536146996,2.61461900601508,3.21791440787281,2.93336325877224,2.3202291851523,1.60585198516415,46.8373337496643,45.1113953561652,46.3724601011536,45.4357031301787,53.1915178383009,51.5759399515445,122.358759918804,134.52833649467,43.9168078526004,42.6662472709391,58.3778323203178,56.9468003812385,104.598630536131,91.4743589743589,46.6597673258896,45.6233436632709,25.91,25.91
SS01,SHAM1,1,NOSTIM,0,SHAM,PRE,SSV,3,11.86171196811,11.8154309650698,9.3805420963851,9.6013800050184,17.8097538158359,17.800547007964,0.203033415378805,0.202404654148204,0.131868291683914,0.124596884521039,0.186163802758183,0.180623703571773,0.210555183030625,0.203633276755111,0.171958232869885,0.17024154987968,-25.8888888888889,-25.1111111111111,0.463929857610678,0.443460459013783,0,0,0.872338502488627,0.866059882726566,-0.111111111111111,-0.333333333333333,0.918077856932147,0.917147047824504,-0.444444444444444,-2.66666666666667,0.803303920843618,0.799046476982202,-0.888888888888889,-0.888888888888889,0.822098843973677,0.830548806496671,-0.444444444444444,-1,0.83898508708233,0.864070853495185,-0.111111111111111,0,0.793504013759912,0.813815943687175,-2.44444444444444,-1.77777777777778,0.837071103939523,0.847297739856705,236.967163827187,247.739226978003,86.6267914908057,87.7223315907128,-161.730921204469,-170.597008039588,24.8371710031621,21.1927401197959,53.6881538927126,54.6256623320723,118.450689130196,109.074929563454,55.0689721300481,58.1033369823924,12.826032048477,3.96683391276491,44.2824615658384,43.5289316224603,105.346959183492,77.6882252694459,29.0512496656416,28.5080743807511,5.62152912099003,7.25161639786262,25.5829004941806,25.1066466442527,371.26961148728,368.810046770204,60.620046142513,59.5916633623183,4.99028627473254,5.11449106384671,32.3407223924962,34.2019400798791,11.2857321416503,10.6774531594011,72.6742522180344,72.2725858604937,110.564289240045,109.014437810622,67.1741080138719,69.6075558235078,122.148757627903,119.448784667755,9.58717875126344,11.9704644714208,37.723563006977,31.1104534558045,82.0109029959825,81.1999008746836,15.0505791064081,12.0081729074455,168.275073470911,163.085069767828,14.4591695469569,12.0018463558075,48.1481481481482,48.1481481481482,68.0967906845731,69.1556856312503,152.240076040093,118.405771068636,68.8472769257413,70.8910076048781,54.7120824888523,55.5195760540165,22.8843989564927,23.6281546384361,23.4656677646138,24.2284291976614,54.090675143703,53.3930020640222,43.6280312132413,45.4188378976633,10.0446816220493,11.1018870329319,7.11948483456558,2.26724091190081,3.4323556200564,4.52857799138875,5.7763834298576,4.90554997656102,2.03829686723369,1.67240190645848,55.5195760540165,55.8907250256315,55.0896773174511,56.2028044140291,62.6481766546458,62.5888030604391,86.4877757901014,88.3456005024632,52.7226985433057,53.2511897623436,57.3260631682437,58.5023153351135,72.8050493671141,86.3374634550837,47.1302316733907,48.9591254574426,25.27,25.27
SS01,SHAM2,6,NOSTIM,0,SHAM,PRE,FV,1,11.7671764356776,11.2270375381713,15.9861112290657,15.6882642619602,13.6898126728979,13.6697505039965,0.160833397322328,0.157124732368742,0.106392662105594,0.093726474683458,0.182045397546318,0.185454326689327,0.132506094571052,0.12864136679249,0.129592897342428,0.133310956074794,-19.75,-19,0.662234854254628,0.668298387053541,-1,-0.6,0.699881060151428,0.707621050687338,-0.25,0,0.924027388648504,0.921415605798438,-0.5,-0.4,0.890809650321877,0.896825907414499,-0.5,-0.6,0.947569774434045,0.956064355433399,-1.75,-1.8,0.863639793484095,0.869820982141636,-0.75,-0.8,0.898174487173628,0.900878069092093,-2.25,-2.2,0.949683560475989,0.938409195786734,256.320828545125,965.074390919739,47.2559346374901,44.6194102178274,-21.7666219643968,-33.5325864044669,30.9632830836292,36.780552964764,36.6926310645768,36.1891206784694,29.4605475040258,57.6722362807524,30.2868138517362,35.5046057046247,9.47668292180188,3.86250705138207,58.0837532164775,56.0115356624175,11.0930735930736,7.14112554112554,32.8154651115607,29.2894005818443,61.3062847081845,62.2646311821252,8.34572972330247,7.44948218461411,-259.84783839549,-274.044121627437,52.2574304284252,52.6668123173164,4.81292598152383,4.93159316688729,31.8407610354115,30.7782087415954,4.92536865655535,3.33099693513497,20.6935561905883,20.17016156994,69.1390110938424,68.5469259970781,39.5150307741081,48.3488200136266,90.7681190436296,90.5303840450923,2.37127249783461,2.63326486621552,77.6911027568922,90.2418835699141,37.272715078408,37.05823742991,13.0720172572588,9.11676490379077,5.88235294117645,6.56346749226006,16.0062035713455,14.0172476416024,0,0,43.2161006770341,45.3249218243541,102.937306501548,115.602857249431,43.2933216531668,46.2850391052377,51.5088632262666,53.3689783382694,29.4988535070415,32.8460292633671,31.5588206407852,32.1845008260189,55.9434837593506,53.8956441026488,38.9677968021249,39.6062938131358,21.1775775012341,21.6642755810615,2.53951955301575,1.49956597770955,3.12413395348019,2.05473961232135,1.85590358916569,2.95945196608771,3.72193036428923,1.835734373394,53.3689783382694,52.8716713069206,53.2333172196368,53.6794661289519,28.6921894361816,25.1979643180728,15.2631578947368,16.9026487788098,25.04258124113,22.7486741708054,18.8180440892929,16.5652332167039,29.0058479532164,25.5576195390437,20.9916376438792,18.7297402515673,11.35,11.35
SS01,SHAM2,6,NOSTIM,0,SHAM,PRE,FV,2,11.1138738823119,11.6500915969992,14.3298382046593,13.8212089154725,13.5864825247674,14.1448766338167,0.167476943920774,0.165377886578194,0.0731285454328436,0.066572509234081,0.184925385966052,0.19931321700794,0.130431835133069,0.130424866752842,0.0902110652501256,0.0856952922600017,-16.2,-16.6,0.701989482158556,0.687847200951379,0,-0.2,0.752740342168683,0.764436845767856,-0.2,0,0.937294937118186,0.937098196051296,0.2,0,0.849589571126327,0.861001463075641,0,0,0.968835256933435,0.972691341971812,-0.2,-0.2,0.903242047531505,0.893364331116002,-0.4,0,0.917253904238108,0.925677325557277,0,-0.2,0.95619197951839,0.954661323080972,-707.55550420883,-2239.97422845893,23.803485622116,34.7187274659659,-33.6491948606492,-21.9484298076911,29.3734656577859,23.2536825442644,27.4758689970526,27.9227554439391,57.9069960639975,24.2440947485321,29.3233591996296,17.5700780680581,8.54314542236512,2.60688204896267,59.8705458140015,59.8498495318339,6.79738562091502,11.0216718266254,21.204154252234,22.311271652891,56.4133652953571,52.9030182232531,11.781683583909,12.979864835197,-222.727264172522,-212.538487746483,50.4106599235914,50.4105185366684,3.85037808316907,4.96698045085142,24.7141060642205,23.9405213061017,2.44333025209936,5.20424329365683,25.4219458570134,28.8116184950394,68.468259790821,72.6551744670652,25.104806866874,30.6602458346585,85.5700294400425,92.4809513956671,5.33577380388462,3.874032744126,67.36603655913,46.8248923993027,39.2728143925915,42.9944101980698,13.986793569925,9.80963179405092,8.82051282051282,2.66666666666666,11.3598181421826,8.57775355510182,0,0,41.5903329844494,45.4111750769307,25.3846153846154,25.5044955044955,41.481115193575,45.0479151703232,49.1215604499888,48.0260754289755,28.7213770970997,28.7315043417364,28.1401100019479,26.6749540864189,47.8572635336602,47.3361875089387,40.2327455856718,40.0731130255969,21.0616961090458,20.6313852650566,2.96692074991474,3.83717121762382,2.02814318048522,2.39976264626278,2.49891332321145,5.39258831332755,3.24685808596152,7.65427298830936,48.0260754289755,44.1521296264818,47.7631405182224,45.9395568109318,25.2241151238188,29.7088869498938,24.945054945055,10.1357466063348,25.3738199761493,29.4290852478251,6.49505392800375,8.26813145254098,25.1721611721612,19.9353587588882,12.4219807634739,9.2539486834046,11.96,11.96
SS01,SHAM2,6,NOSTIM,0,SHAM,PRE,FV,3,11.735752229744,11.3984622822262,13.5843244771236,13.994489255797,14.3514952336424,13.6662945376994,0.192157331512725,0.193715600551685,0.0914215264353592,0.0990997210848993,0.160864686434513,0.178172288792543,0.11843226049696,0.124392225823107,0.103476033936948,0.0919827821603459,-16.75,-17.6,0.645401689911307,0.659117205653624,0,-0.2,0.759015216127771,0.745169434562285,0,0,0.919290823403602,0.92268106463777,-0.25,0,0.902547922181923,0.908096691189642,0.75,0.6,0.973702385728417,0.957933867128302,-0.25,-0.2,0.911270988079379,0.872573354008124,-0.25,0,0.902083295733556,0.876082569663407,-0.5,-0.6,0.966384412406857,0.960297885070909,939.76219667751,14277.4267505017,41.5362848394229,42.2344029925112,-21.5136038200812,-26.3607236944038,18.7893123817172,25.0311986550029,29.4965475875448,31.5671516312947,24.5598225229958,56.2384390321139,19.705465635458,25.8405943341844,11.8820230004549,3.34837117513817,101.225144308636,102.990746016693,14.8932806324111,8.40579710144927,82.6695087586573,83.5484814046176,53.5903260817731,57.4568856124647,14.6007164269819,10.5665643670103,-215.54317665274,-222.456665390514,54.5360813708432,51.887341569899,4.06403178142308,3.89349718381976,21.6171680154731,22.7168194151414,5.14198519024011,3.03599353019955,23.0476792792073,19.673709188311,69.9021905111851,67.3610748800372,30.6574121541596,34.3662486478118,90.4325207945468,85.8000385058832,4.42531723711161,3.74400901888675,73.3060219830223,87.1439483024554,39.6467917436578,36.2891545045427,15.6583039538116,14.698602831272,15.0840336134454,12.0672268907563,18.7087476596133,15.5338961282039,0,0,35.8303417845698,35.6356919074732,15.4411764705882,28.8573999100315,33.8810244641329,34.6017415249308,46.3730751509747,46.4404617087008,24.081797318843,27.5329909480597,25.8676511312185,28.0759027994867,49.7206029149754,48.4920117888771,35.7677044181342,38.3221579753879,16.0281623377342,18.2677930342235,5.3522757981156,1.38777890005636,2.82196810156057,3.72326500787981,4.52122707851795,3.87731222819332,3.18547144333481,3.64928764570009,46.4404617087008,48.8460329363138,45.4343471204419,49.0351261594128,13.5823013951494,11.3658579777394,13.4674922600619,4.25770308123248,15.9803638203184,19.3105564849062,19.1847811810283,13.0762903326767,11.1283109735122,10.9941520467836,23.7356987780928,15.2314269760023,10.5,10.5
SS01,SHAM2,6,NOSTIM,0,SHAM,PRE,SSV,1,10.9854326759781,11.2627380411864,12.5008624064657,12.8351288772957,17.6221563324041,17.5363936428221,0.12804904809201,0.124113853397381,0.0891780057636729,0.0865124400093246,0.123849466162556,0.126318256614212,0.0876467198579724,0.0920669394718708,0.0948739031632197,0.0853009416651595,-15.6,-16.4,0.600434331971105,0.597675369171196,-0.6,-0.6,0.809799334783468,0.797863259616943,-0.2,0,0.939394916718635,0.941254647160517,-2,-2.2,0.837164829870023,0.83131447007172,-0.2,-0.2,0.934958328617973,0.946044113371209,-2.4,-4.4,0.865527965294297,0.859011558856,0,0,0.823634077654524,0.797029189659614,-1.6,-2,0.954044279602584,0.952709720678049,755.305290894929,-605.995521790042,38.3216820016365,38.3550723194065,-22.0126998031947,-31.8147401060882,23.4892519934482,24.7101633556541,40.1031294666901,41.0367213981277,122.168701017209,123.414056624892,16.6982649090149,16.9969395164804,14.3020231576838,3.19941005879621,87.657496978145,83.1738621691592,16.8654970760234,20.4511278195489,63.5279418220587,57.6290069769235,24.7849958429961,28.5554938356619,26.8965849728172,26.3166954522159,-270.959324695401,-272.081753237649,65.4060088232811,65.2880395725908,4.85899950670127,5.28818394835812,24.8331831746271,25.4597495906672,17.6955611420351,16.3297334598671,57.1644012441885,56.5168403209016,94.3599685059139,94.4767901872917,19.111799097367,20.4899623479141,109.133802469219,109.271699902219,6.5512320527333,4.07340203561446,31.3744973053829,33.5373825716091,70.3626771207888,70.1387028773054,15.6486248602991,17.8436032065448,7.99999999999998,2.66666666666666,26.1523175865364,28.9114551173107,53.3333333333334,53.3333333333334,48.7054024533843,47.3725460166513,49.7075630252101,64.7932773109244,42.8800630184901,37.067980009699,39.2627739668909,38.1987074466812,18.1564871849304,19.5284886706335,19.5234379547787,20.4225012257531,42.9624689348922,43.8483662975861,41.28170803027,40.3295223788644,21.1984840151908,19.911410490162,3.27307594401642,3.33521600348852,1.89021685369722,2.16004570642087,2.90746807234167,4.87729949604975,3.97961958889747,1.07002655127914,36.7701460815686,39.2627739668909,36.7764518663277,38.9695163766813,20.3012354946254,16.4910372914611,43.5080213903743,78.6429548563612,16.6703789857899,13.9491818218742,29.752275404451,26.5589258214356,27.8681318681319,32.7912087912088,32.8877363985288,25.3328375215353,15.91,15.91
SS01,SHAM2,6,NOSTIM,0,SHAM,PRE,SSV,2,11.9534345361547,11.8901282139255,12.9590057299442,13.0013742207556,17.6013833003876,17.0825148975024,0.128212228481755,0.126687675882238,0.0667925501846427,0.0746738746802112,0.134395235897646,0.122893194403201,0.0924482249910272,0.0885485292837885,0.057450305133738,0.0693160389000775,-19.8,-19.2,0.589974164999646,0.590581982087584,-1.2,-1,0.766890695266759,0.767530932660268,-0.4,-0.2,0.924799144384264,0.921462878505926,-0.6,-0.8,0.832279629440972,0.825225024151327,0,0,0.96191998166733,0.947516774327169,-0.8,-1.2,0.880130153702749,0.879390514225487,0,0,0.840298293668123,0.839287124135007,0,-0.2,0.973075012439044,0.964540661646317,328.28016921733,-609.876858572773,36.4554946612963,33.0601223220432,-15.5615425914181,-15.8470902447607,25.1147671228786,23.0756349989803,41.1165931796987,40.2234289506861,57.6163853962474,56.0764761443145,15.9639113939094,15.5506823423726,13.8057471555235,3.14258279333119,64.9653502346719,58.7881114247272,6.79738562091502,11.5170278637771,40.0461062889586,30.1928689382112,33.0304092964313,33.5434416294962,26.3575510279473,25.6730510566395,-203.60293463908,-202.993351741615,58.9465123075888,59.2193056803764,4.12716389572707,5.17278441595959,26.9174710877129,26.9278992708703,15.6208434887283,14.3887375565928,57.9894804142367,55.574421205165,96.4710048209014,96.1226846155284,24.7207884451075,28.7137938204289,111.422507367009,111.394614424425,6.42526676299851,5.70974878949314,21.8627524889435,24.0996781125889,70.8705873981608,69.3344776256914,10.966698352637,7.02463603126523,14.1245421245421,17.1721611721612,16.0452815674265,15.289806141275,13.3333333333333,13.3333333333333,52.0904794478349,48.0142554356231,28.6868686868687,39.4397759103642,44.0182886100527,38.9511100229602,45.0519862858743,48.9578980259096,25.4245455613677,27.0039312479361,26.0583964880481,25.3510142156793,46.8042052602183,43.5592425809351,36.0105812095449,32.9161787741482,15.4085143930897,14.8463261016492,3.13309263956629,3.1954744554869,1.24995244738204,4.75767455212313,2.15871728225537,1.83487529716495,5.46202016609617,6.59486417762909,49.2288966435061,45.0519862858743,48.055477504655,46.3110894836278,26.5470728282164,21.2668473263312,97.4978354978355,94.0686405403283,26.7900689133797,23.3390346946224,14.4863596217668,15.5750729597986,29.0509490509491,31.7362637362638,18.8206282162722,21.3564485540627,14.84,14.84
SS01,SHAM2,6,NOSTIM,0,SHAM,PRE,SSV,3,10.3266404942264,10.3177285298128,11.5824730517778,11.5120254869526,18.0977427680746,17.9564357744468,0.121790894277161,0.126908419503313,0.075072503006504,0.0825961088043071,0.134331782422534,0.142032353128222,0.106663368508075,0.105616675571223,0.0784683569354878,0.0856531232499734,-14.2,-15,0.637317860803472,0.682931071087928,-0.6,-0.4,0.872758015657939,0.874550933431551,-0.2,0,0.933434513587751,0.932133676566366,-1.6,-1.6,0.879296980994236,0.878802479815645,0.6,0.4,0.91706090427989,0.923241577490469,-1.2,-1,0.849296682590634,0.833953466290185,0,-0.2,0.865983632793799,0.868808063348816,-0.2,-0.6,0.928825797831792,0.929202213484978,-421.636503864038,78.5408552422292,30.6147062677583,26.9904500950922,-44.7170341733432,-44.575638442656,37.1207617122712,36.2643369539976,33.2054331166429,34.0998468925368,49.0126691344083,63.5124531953385,16.0007291305421,19.3982075032288,20.7866243875351,1.71113695854802,52.8652120642369,55.4340689003239,9.55115060378219,11.6564137616769,30.1027053508649,32.5536602542032,9.18981249704051,8.36085947482701,31.5561300049,32.6070066135946,-189.528247946767,-177.922458534124,59.2227217104578,59.1339531155341,4.02296934333611,3.37526879899761,20.7282439317838,22.2917098942677,27.1567257751002,27.2304817550661,50.8945205234866,48.9332086315477,90.7354464602072,90.5979955071981,39.213630547961,43.9794095277018,111.144297384237,111.972303295036,3.22391059122406,3.69461208974186,33.6744038116653,41.9571550337231,66.6588994207267,65.0607623644682,6.33256170797102,14.7176245445203,18.4005602240896,20.733893557423,14.6738516523805,22.5354241436465,13.3333333333333,13.3333333333333,27.4051702128712,25.8164703740766,60.3560043560044,60.3560043560044,14.1881763114819,23.11811706643,31.0202813368872,29.2520766987504,14.3102521748348,17.8876888630449,15.7531004674858,18.0922051766828,37.9561987856397,38.5640262863103,36.3865106489684,37.3486217354374,21.4441836122845,21.7583018272215,2.18859156929207,3.18948000885862,1.51584358827958,2.13347960235056,1.69049380172673,2.91708562281311,4.72707702375838,2.48537187355927,29.2520766987504,31.8797972188539,29.5931631412671,33.0148012690312,31.8466873320238,29.9553074752575,42.3343070431678,36.5907172995781,32.2037971546814,29.7200309444176,9.83888307216738,17.2462327655242,16.7912087912088,10.6666666666666,9.17180208891871,18.157282507596,15.53,15.53
SS01,TOL30,2,STIM,30,TOL,PRE,FV,1,10.128429569845,10.1285152569873,10.151563702722,9.73351068482539,16.5363164818636,16.5993715145237,0.262719568999582,0.270300913982861,0.220675377441047,0.222390554374585,0.143452052413831,0.143358401146238,0.17791519803378,0.183257198600667,0.185116577683956,0.19532044186149,-21.25,-21,0.79718103372457,0.801858260632962,0,0,0.929939858021376,0.936713258978893,0,0,0.90978518627602,0.910843867394571,-0.875,3.28571428571429,0.796614729351732,0.783124204183934,-23.625,-20.1428571428571,0.765182008230013,0.770821616795238,-1.125,-1.28571428571429,0.886951223145811,0.891017223671816,-1.625,-1.85714285714286,0.89935108843232,0.881665081820024,-0.25,0,0.908134249220829,0.889692498050699,125.269315102399,130.96588598017,54.7724929751162,54.3093359890464,-46.6745619630317,-39.9704754480602,36.7075100232546,38.2645651071961,44.7775568742388,44.1188515929993,100.975132876475,57.5220252435925,40.7316341277136,39.7597224847916,9.97027300488521,3.15115146577213,42.1751172861588,41.8169806066837,79.3565699642929,91.9056285543932,27.6862595825511,27.1943677795979,6.38049235424123,6.07213000430976,32.6501991636011,31.9293370733685,161.906042561004,151.839049003386,64.1460199573761,62.4695439223547,49.5571204613599,29.5413266807164,22.0594041953111,21.8852403771938,16.82213442463,17.347038432409,50.4271146904831,50.8285036972399,98.4939622489753,98.8751262823798,18.2858892385528,15.8770839181614,120.700497106155,121.203724566366,8.31888288111053,8.31677948699526,45.8926309538038,49.9982344564717,64.3807092063667,64.7924435040749,26.4122234020035,28.1833920223844,142.762664697213,141.263732870031,18.0115584965389,18.8364929690617,58.3333333333334,57.1428571428572,11.1281001517067,11.7797523042337,73.085666575369,68.27405932996,12.6563132208709,12.1152823750167,44.2595975567688,43.2795101909137,18.8807864751867,17.472401674001,20.4268115808438,19.6310644036968,45.4656673366917,44.8800105833183,24.0782463235626,23.7813031792896,4.37976820400692,4.34834343720015,4.75448419745813,2.65178293204354,3.14634170258953,1.94669140416737,4.74537270279687,2.38650843985863,2.81814621582359,3.78440932269382,44.502224478274,44.2595975567688,44.8304100623559,43.7423884335357,38.2255422071397,37.3543878284426,105.725642845701,119.466957436882,35.4874555752498,35.4551789756701,49.617003554397,50.8040998377311,44.712154292013,52.5532340836731,54.4292506318673,57.038601335628,19.06,19.06
SS01,TOL30,2,STIM,30,TOL,PRE,FV,2,10.2788940139634,9.95978745749615,10.3286802198643,10.5028793642736,16.601772075778,16.8704592111189,0.277850053818803,0.282699917981301,0.221662483123675,0.221694592585269,0.157678533205057,0.154935998610784,0.207653194947502,0.190904426536351,0.208254159373388,0.212349175071454,-22.7142857142857,-22.2857142857143,0.745139268180042,0.783714329391507,0,0,0.921961658265657,0.918642671968264,0,0,0.905628678595555,0.905777349099008,0,0,0.782024929682518,0.784391403135001,-19.5714285714286,-19.4285714285714,0.789009367024158,0.791731750450122,0,0.285714285714286,0.900121219252565,0.905431428032223,0,0,0.873645909676921,0.881485937614122,0,0,0.915629229809914,0.906597579755818,120.80304744269,122.687045234373,53.070077290961,52.4717433479554,-60.9055188076196,-42.973006637283,44.6443562544442,43.9857469257194,47.0856262951853,46.6972853752727,96.9675848486855,95.9337249936645,43.3962389850666,42.303265139623,10.0949561171029,4.33525005962547,30.6686406904843,28.7707519003234,115.125122088412,109.186026765996,15.7662535986602,16.2506393622251,4.69161418838812,6.42109380534492,30.122506345474,30.3944437530807,159.219540194952,171.588896518795,66.5721603703689,67.4043956642136,32.4813162087592,59.1314152759406,23.8805188037893,23.2779613357228,11.790067921739,11.6151217151201,48.0031929626105,48.6514828717096,97.890028424077,97.9000521845064,22.1574619203753,17.49725082117,122.272290530235,122.583581947609,5.32940043326946,5.6578838097181,45.457189749161,46.147025018657,64.368928676166,64.9446698583965,18.2270859240748,17.0372887869866,153.102601262183,149.562848278018,14.2206823136591,13.5114143831463,66.6666666666667,66.6666666666667,12.0666182267199,10.1883061314551,42.4908424908425,37.032967032967,12.3895289406683,10.7023455203479,48.082834858013,47.1670127860448,19.3827089750025,20.4193288093439,22.52654229931,21.9541869641629,53.2430460084902,51.9754910659347,45.0360084661728,45.6381546474668,17.3380287262423,17.332406736081,4.17619320183377,2.99126221061277,1.59465644556324,2.35774334399612,3.30872484028313,3.70387214528366,3.30089376522475,3.00315502987859,50.6138766851965,48.082834858013,50.547067334423,48.6133245988897,36.887083176603,33.4035912191874,169.436306845731,130.138486022487,33.1711733366234,30.1037226901523,51.746862582803,51.3578724477252,61.0673007066905,82.3528242619069,56.9784373665773,57.0798615090536,18.4,18.4
SS01,TOL30,2,STIM,30,TOL,PRE,FV,3,10.1635540110234,10.5434605873274,10.9318035022399,10.5441770409143,16.2432215149054,16.2270672077518,0.299526611409931,0.303374670824322,0.256078406208714,0.251253474128579,0.145624316403741,0.137688774737672,0.226697910686594,0.206082338282444,0.20906536424467,0.207168971561164,-22.5714285714286,-22.5714285714286,0.773546470768943,0.753406845149697,0,0,0.915245259424775,0.920201611786876,-0.428571428571429,-0.714285714285714,0.90555973942612,0.903988669344321,0,4.28571428571429,0.742374876035983,0.751113479973219,-18.5714285714286,-22.8571428571429,0.780468016162137,0.784802246299149,0,0,0.900781322921955,0.901627701928095,0,0,0.859299074504131,0.866575095694192,-0.142857142857143,0,0.905522589973654,0.898424644144372,200.458009544858,161.80426878166,55.7957324790377,57.9701983305198,-32.1858882297883,-35.7280071525842,36.364026769686,36.6486207963548,46.9940950601095,46.8295665028877,68.9703271024655,68.9189478060566,38.0658933431957,38.9841489828492,20.0763744036806,3.02033000020752,36.2464826353912,39.0981679805935,97.1634095096619,101.112202971374,19.9890198960106,21.7228826503712,6.95857330036538,4.8738731455547,33.2606184591376,32.4925852793818,227.26564952187,218.237613384409,68.6180135295867,67.4614236296799,30.7554815206263,29.3761780536265,24.4000839495727,24.0251333065466,17.1923573760421,16.3243560264253,47.1223736913999,46.3868572292761,95.095319733824,94.5544605958962,10.8420554986904,12.2478306886718,117.917334966235,117.769768201343,7.21454149391894,8.37951102797746,37.6454375077962,37.6509102958284,62.3457313633977,62.1097571305296,15.3393568000696,26.80574835014,152.225685921655,151.347499067858,12.048477096032,23.5853752355536,28.5714285714286,47.6190476190476,14.2346868239511,9.40088612996033,17.3207744636316,15.1562722991295,15.472856972479,10.4288941682113,42.6304176253923,38.872515734011,18.2491523663956,18.1325718219561,19.6526764722517,19.6946089757964,49.2257269928848,47.1572353868358,35.1463715408485,34.9676740540469,11.6696748055696,10.4705273003548,3.29068075471416,3.40758866411587,3.31087470470299,2.56784900297199,2.93422523714675,3.17536841061085,2.12254221626416,2.10529704715777,42.4410481640185,42.6304176253923,43.024179827833,43.3277597907992,47.4906539252019,41.8631609805742,67.0408163265306,117.128339888843,42.3985822280711,36.5871623869657,54.4309622730355,53.072088411816,72.8187522313023,73.8110648790261,61.3183376019039,60.0829669313876,18.78,18.78
SS01,TOL30,2,STIM,30,TOL,PRE,SSV,1,9.11693581651853,8.92184565621341,10.9535671761995,10.8784470710127,17.4711077426537,17.4366308019945,0.24282389242579,0.251921466045402,0.21185315037368,0.221276277231902,0.128925560561689,0.133405894638529,0.210502809147037,0.205260464809795,0.172174088986249,0.175017568887316,-26,-25.5,0.720598656975987,0.738715502295536,0,0,0.90191843145893,0.901111711947441,0,0,0.913869687001362,0.913855266441507,2,-1.125,0.782382853289861,0.757846271157951,-19.875,-21.125,0.799510899089736,0.776593156714759,0.25,-0.125,0.898814830737871,0.893979871327457,-1.125,-3.75,0.832961584386904,0.843837095441607,0.375,-0.125,0.899734060254503,0.890687019848574,109.257485492161,120.981010062467,57.6497243526556,56.8881069215116,-47.4474176696426,-52.1362729990001,40.4816573664329,38.9732764348249,54.7912458973376,53.9541210194379,114.833237691181,115.919312929373,50.512850047391,49.4524023141837,13.749826101703,2.75478770062713,34.4622350665187,34.6498188843397,78.3288500513705,92.0391322537853,22.0171738863572,20.1327101911632,11.5146448102889,7.94806916942649,37.6479197717529,37.3357364236387,165.06807921038,180.109652508887,66.0969710277953,66.345260123202,28.8693242852351,27.7893892199818,31.4505414055026,31.4539359435679,20.7304391290333,20.2461723515958,64.6605182960356,64.1076225318884,107.281830959039,106.409078625727,51.1005518992322,51.8141813243985,122.847830587365,121.302090856093,12.6268400446349,10.4220025329008,31.0962147971773,34.7164010179222,75.410549887549,74.830955290904,21.3859925577546,25.1586610204316,120.167100576417,117.864320419053,22.5806895408566,30.3631755759557,37.5,38.3333333333333,13.1626294591526,12.4480456712109,48.1163975082239,46.0039524989133,11.9835303086675,10.8022479467951,69.9229323158874,66.0905042276269,29.9042651349236,29.3430781157534,28.9675993658231,28.8309020358025,63.5470000845683,62.7056493102221,38.9481347123999,40.1766909781847,11.9361955676742,11.6462731331595,5.25536112323085,2.98336709009011,5.05660593115303,4.07927466059351,7.67040218753718,3.91001643117781,5.42118833852713,5.86101446410602,66.0905042276269,65.3700657764014,65.6100466074718,65.3203522852084,37.7398945612432,38.3119651414955,134.623391496075,128.968230513074,34.818473968518,34.2521474025218,49.2217830257591,49.6979154714694,47.0524984187223,58.8017950401851,53.7946786711453,53.9000422164819,22.1,22.1
SS01,TOL30,2,STIM,30,TOL,PRE,SSV,2,9.67077074546683,9.6127248123462,9.8925925460484,9.81391837338869,17.1291634380166,17.2930693341466,0.250010911921831,0.256532108894381,0.191372222928629,0.190927350401973,0.129039955731046,0.129566670699772,0.187167219951154,0.177501188416004,0.181112299237907,0.181730149928295,-21.5,-21.6666666666667,0.732434704556046,0.744289569123263,0,0,0.927482208404278,0.931226760709229,0,-0.111111111111111,0.921484498772028,0.91696399824703,0,2.77777777777778,0.804508235737101,0.790907261763785,-12.625,-27.4444444444444,0.777382889836991,0.778312054422466,-1.5,-1.33333333333333,0.885248720255308,0.880094082751249,-2.5,-4.33333333333333,0.850748833192459,0.866811265939867,-0.125,-1.11111111111111,0.891156393622471,0.889271220915092,144.354536471108,135.665732088102,64.9493938172731,64.1593615166747,-46.2464824496028,-43.4645800641696,37.3692681615179,40.1434738529823,48.0163335862994,47.836691539229,73.3960699391581,95.197909172533,53.1469205823888,53.2885112738459,10.4675356371737,2.45694664199116,55.0242185955597,53.0487508602925,85.8568290577099,102.336458353807,39.6885855071448,37.1155142074614,8.53059425449605,7.54905379651699,35.4030550718081,36.2733547627885,140.688648429666,138.393228004087,69.1980702071803,70.218683403238,2.54259973555571,3.21580382714254,26.4143796443882,25.8666257280786,17.6595315202516,18.4911126770924,60.0121291744733,60.0056129371522,102.862211586278,104.865671744987,33.3525314131815,27.6240578674023,122.61254837109,127.097425971463,11.2809492709129,10.2913513259225,31.729108776075,31.2552832892195,71.7277466414188,72.3949681098009,41.9105989691934,40.7014761043529,142.482676744313,144.144038799502,40.1239523171574,38.7006413751058,50,51.8518518518519,9.90116783806489,9.27729086342989,54.5204755158501,59.9356356803165,10.5587787535428,10.9369394302452,53.0609925992722,53.0010974476017,22.5902097360579,22.974213819357,22.4343838879276,23.0076140257909,53.0985978309331,52.5757767964283,35.0303224884689,36.261988386924,7.2135558072083,7.86374125289085,2.38364202879347,1.76936501146585,1.99054153207152,4.77495455321057,3.77304122494764,4.02802995899586,3.28629926229568,1.55519222039367,53.0010974476017,53.3811464161065,52.77883636872,53.5630830756191,37.3364668097153,34.0335716717256,156.916388143347,158.263943090025,35.864939633187,33.1345249259226,49.1193633677371,48.7911805164265,59.6315789473685,61.2442062556479,56.9440646958151,56.2721284366823,22,22
SS01,TOL30,2,STIM,30,TOL,PRE,SSV,3,10.457318563804,10.4916928209018,10.303878564628,10.4267502900513,16.9081383180015,16.9190544933119,0.254114836058056,0.24778268730427,0.170391961540412,0.166265194456474,0.133437272141966,0.128321812829382,0.192310550606989,0.178618162907302,0.199129262303472,0.200325132245444,-25.25,-25.5,0.679824428016559,0.688115580851262,0,0,0.910719468481298,0.904001731873913,-0.125,-0.125,0.906835989714947,0.903586701153496,1.25,4,0.763483271703178,0.763554154707912,-11,-7.75,0.792525631104744,0.792029894042623,0,0,0.889765681346713,0.895139364145789,0,-2.25,0.86898797613745,0.859235899308982,0,0,0.897180337964766,0.89438816521732,172.595418676951,169.011004064205,52.4512041106914,51.6818368399283,-41.2978933943471,-43.7861536918785,24.2222854341585,26.2700145021858,50.9236815917844,51.0755865850184,63.5772811974101,64.808377111058,34.8053440698079,34.8712421226445,17.169984520098,3.12530778316636,30.0630378751948,28.4944332730816,122.78160848494,122.747787835215,17.0573365479928,13.7155359268601,4.04235806471792,5.66966528402253,31.4440727940456,30.9315588125435,191.373412586859,207.637359324313,65.0750435043594,65.0489552627779,5.96926285941939,6.22963721291417,27.9801666296793,27.968599520706,15.4411378053719,14.0147615547623,53.185953397656,52.1901508907896,101.020838262424,100.98736402438,22.4372357168346,10.6352431750198,126.710407729119,127.519122411464,7.30913441814935,7.59301023706346,37.054176893485,33.996698758362,66.9529278232856,66.5790148178273,11.2807621768065,13.4057889414656,157.284132893945,157.810624556579,8.11119225471548,8.1948009989506,66.6666666666667,66.6666666666667,20.380153047137,19.8490576355861,112.855471642785,80.1544052041564,22.2759119075161,21.6417374800824,61.9066982696597,60.8003948618923,26.171090199417,26.7652891638417,26.566970715454,27.0214736002047,54.6874316072107,54.4979754994007,37.9585075889463,42.2972727451149,10.3290796430907,11.8157120811039,5.75971264858654,1.55745968180606,2.07284219102175,5.11178025682738,4.41401092433516,4.49345506304982,2.75762604228596,2.11915415043905,60.1533739343164,61.9066982696597,60.3801897902128,61.9695686140999,44.798861390193,39.9232313209069,131.017624317535,110.929725331416,43.1165648153766,38.096543341725,58.0374420614109,57.507433258484,85.7074921794548,90.6025970745597,67.0263319705271,67.0601164823469,20.97,20.97
SS01,TOL50,3,STIM,50,TOL,PRE,FV,1,13.0856198699163,12.9097411467508,11.7349504106358,11.9832572730986,17.0666418161776,16.9956870692939,0.14368230370596,0.138375119261666,0.207176797851674,0.207706700207296,0.205430224415608,0.206420113962972,0.132015489640603,0.120143966376127,0.137991180108279,0.136869815674431,-22.3333333333333,-22.1666666666667,0.614514487432117,0.610756803867523,0,0,0.86843212656327,0.865598786119224,-0.5,-0.333333333333333,0.917430641727396,0.91741004713296,0,-0.333333333333333,0.842189620991833,0.85328272280771,-6.16666666666667,-7.16666666666667,0.853460874824668,0.857716949303365,0,0,0.88123655708009,0.874041144979844,-0.333333333333333,-0.166666666666667,0.917550618181822,0.926196991559851,-0.333333333333333,-0.333333333333333,0.887259107524141,0.891348195989763,611.642426036501,473.484124009409,52.10082829223,52.3404403317854,-15.0118011777931,-11.0354789826904,31.4000212947843,34.4007804047678,46.769008276701,46.3898317986368,27.1968826687137,27.4614044843721,20.3635397197174,22.4916863473624,3.40317000169348,5.28028152735623,6.69507516203126,5.10067246736184,107.269706237314,122.58095121253,13.5605156252657,10.9915968243631,14.4237405968611,16.2606945900184,29.2094957093624,27.4443907724754,386.716412567105,-1435.30339564219,65.1100857086671,66.0024420605125,4.58606717993451,4.76813864034977,26.7287353190598,26.4134418727092,8.87189800818152,7.27904158301489,45.3254965151273,43.8993516327981,90.6286129360497,88.6914723978528,15.7745324824049,24.8515625468975,110.148959053099,108.703521030234,4.77289388319871,6.16164763639712,31.4055371952316,33.1382011279488,61.6032002685267,60.2058979170012,12.3039337641346,9.27892973043709,149.649859752665,123.833627397461,13.1114069585988,11.428175607714,55.5555555555556,55.5555555555556,43.4994481244037,41.2161864950496,71.1904761904761,66.4285714285714,37.4617355739519,35.2773698957312,53.4021215361557,52.2362567136813,27.0913114765242,27.1376053463894,26.4141457590737,26.8437982804723,47.9456120533529,46.3161688488536,31.5527763836285,33.2204213255381,9.13076181686317,10.2144895649046,2.84254193678764,4.78035424262174,2.06717462223449,5.15207906680925,4.44717859001267,1.95183737577378,5.16205886268872,1.19728915408528,52.2362567136813,50.4969717837268,51.311905690176,51.9116826854772,10.0503522364525,6.17613929087806,48.1818181818182,41.7316017316017,11.0837763209988,8.01395680567648,12.1674146067065,12.1322289149949,90.1935319582379,106.922443200568,11.543228890789,10.3057345445094,15.57,15.57
SS01,TOL50,3,STIM,50,TOL,PRE,FV,2,12.8271261480161,12.6840028744711,11.7651796885545,11.942296110869,17.4533471826289,17.3069812010862,0.174196182589093,0.176340853874576,0.219325368944831,0.239262689513957,0.17244116078706,0.1741861675353,0.104178079764143,0.116177449786838,0.153425115651603,0.141864408532733,-22.6666666666667,-22.5,0.545455633510202,0.57216004118667,0,0,0.851915771433662,0.847840046015446,-1.5,-1.16666666666667,0.903618415959354,0.907096485487561,0,0,0.859887563895208,0.851640848971415,0,0.333333333333333,0.882979014161102,0.878048788853929,0,0,0.940002553429096,0.937713640492906,0,0,0.949454606587975,0.942801207668356,0,0,0.925145169687089,0.932153201438073,448.496511869822,433.567472643733,67.7211051969685,66.3188875525449,-32.8903988979273,-36.8289611038514,34.0971256904178,36.0689615639226,46.5526814336548,47.3235108511074,76.7100956113227,43.9774233083114,31.1998951079345,34.1233724533228,12.5459664704424,2.11772377193933,15.7535067362165,11.1297599765838,129.191495008647,135.943175229772,13.4267560922226,10.2139397596717,18.6606585931355,19.5444417767654,25.0913058126168,25.7102116370668,7813.38829974896,-898.219557310063,67.2557132007034,67.3590763915058,6.75195933607683,6.39051915767948,27.829296564781,27.8262733435147,7.67231811496136,6.85833904880459,45.7695523932593,45.2143086969413,93.81883647935,92.3493244610495,10.6943164860899,9.83584533161792,113.726944491349,111.523374320274,7.42459221773497,5.30206527892665,37.7917226422684,39.649630855372,61.7438074372561,61.0873680510225,28.7751329115568,31.1791346800673,141.334037092234,119.414236340466,22.508312193705,26.0105766774723,22.2222222222222,22.2222222222222,22.4747268450939,21.2020171736189,59.2023667292484,103.452058330107,24.0991934112443,21.9539490762788,44.251435697603,45.8371446865287,22.9644069734119,24.8274898862657,24.5559266268749,24.8591501480491,43.6272450100055,44.2145127011801,34.0542735184226,33.8271538858324,12.6321242000684,12.7482104300059,2.56625537716095,2.24218840090829,2.07245011487354,1.62329423156482,3.38513677309182,2.57143775391736,2.21754650138712,3.46622843889442,45.8371446865287,46.1141700204589,46.2167009563555,46.5895612132751,3.84146672273691,7.24367576593956,58.1818181818182,58.7205387205387,4.91780222313003,9.71649713001301,17.1535184580865,12.2091482677755,85.3466495632521,67.1197937864604,17.1769443964557,12.0097802202422,14.6,14.6
SS01,TOL50,3,STIM,50,TOL,PRE,FV,3,12.6975542247311,12.8691934148904,11.603194260994,12.1026755318187,14.6148345936122,14.1357973273545,0.205878038238791,0.212543267532982,0.256773738445377,0.247598186866666,0.166409379140029,0.160382964289045,0.103613115640778,0.105779832379888,0.153189488774489,0.144097007141071,-18.8,-19.8,0.703588199541332,0.762825196380324,0,0,0.854252113880944,0.843980347668645,-1.6,-1.6,0.91464776382272,0.914308446316719,-0.2,-0.6,0.843143529882087,0.833032368580283,-1.2,-4.4,0.894723268503608,0.885621351564091,0,0,0.932848900568566,0.938837777086261,-0.8,-0.8,0.951701666096998,0.949841988609922,0,0,0.927381199224826,0.93591016645304,-345.533466848449,-990.11623760599,31.6377448867029,28.7834381966453,-22.3659281090809,-18.9345475522756,25.9881579803556,23.3776129159794,43.4877556548192,44.4065643094769,25.7588953083361,27.0913917901687,12.185391135465,15.4218080498567,9.36486999735329,1.31376572935633,10.4950469453217,11.9613012783911,87.5596752961826,96.8660200626405,20.0051448151516,21.9280742472467,23.7712151741575,25.1969570488503,13.2023824219522,14.3193670520794,-439.48779789187,-463.973884217243,48.1772411434117,49.4881993511635,6.84046210058497,5.32849394933533,23.7990789536153,24.1862139389258,4.61237017429874,3.9210109830877,26.271261060719,22.2604004430536,77.8730187138572,74.555321045936,24.1317504359068,27.709973247907,100.498621205649,97.8549035700299,7.25192249989713,8.3387060179513,33.9952082098447,36.8997097198448,43.1145929899291,39.228693117809,24.9090229064742,21.5041710252889,127.601297975546,124.667861769928,21.2160171940048,17.8367057910752,0,0,13.8713455965973,14.8810468288246,126.638642403349,128.743905561243,13.1190488130795,14.3107437036116,46.0630548786237,46.3775315038392,25.0215471839326,23.4879177886587,23.9599201615171,24.6402430854877,48.0685374227339,49.1419174127543,26.3248944037228,28.8315388601935,7.49687629033251,9.0201220213102,2.41176272989542,2.52904435850318,3.27966232729152,2.26075912156831,1.52851260881988,2.04401000925709,4.07324089367085,1.98752288062703,46.3775315038392,47.5367184127029,47.09416677818,47.8789054129162,5.25504816500259,3.93938227533384,25.3580562659846,23.0588235294117,6.53807538876886,5.18095167661109,10.3993804821605,11.7221920012727,49.4687653781908,50.9864871970135,9.15875016184214,11.2979602985431,13.44,13.44
SS01,TOL50,3,STIM,50,TOL,PRE,SSV,1,11.5468454448409,11.7730427213807,10.0640572291623,9.88620639914574,17.9277663972738,17.9518032204206,0.162975909349154,0.161122682304757,0.174619760845852,0.17038615842495,0.161848157710614,0.165866148083448,0.111756355341388,0.107132478930645,0.12072957518411,0.116003923178501,-21.5,-21,0.518115239455967,0.496779947904953,0,0,0.915842077854804,0.919950098304724,-0.125,0,0.930847906344614,0.941061364882377,3.25,-0.285714285714286,0.77906106061657,0.781997553768976,-8.125,-6.14285714285714,0.83804540895969,0.835697802422024,-0.875,-0.142857142857143,0.87256116258796,0.867675069666259,0,0,0.933844304701233,0.938086532608142,-0.125,0,0.875320479489434,0.882960060832627,330.384554790194,334.297174958504,84.8201048715702,87.0164926900161,-46.1554512823821,-53.5606262329391,42.463817413512,44.7706392944824,48.4045032729244,46.681150423249,64.3149171156329,46.4960568941153,46.5732731214054,46.099057232104,6.72493477783352,2.28932475242866,11.0103493085163,16.6312370445689,102.601373070138,105.032082496984,15.4346550611625,19.0842019742771,4.12706579140589,5.21196649822595,32.1647216796283,31.768963895538,267.630937057184,267.279397951635,68.2391544301413,69.0779189516324,4.21996126810838,4.51472541391831,24.7780394135221,24.2316316853255,13.6386710771688,13.1047144862404,65.8230358471684,67.5467114332357,98.8940668826146,100.025307395522,62.8750549029686,61.7293923362427,107.12527610662,109.24315758723,13.2910297577267,9.50882798634605,37.093644038196,31.4275421711113,75.7369562834831,77.494690694901,28.664477835328,29.592025494591,140.508280479211,141.300044541103,25.830327220374,26.5158580924309,58.3333333333334,57.1428571428572,34.730228729084,37.5537018258192,84.2207792207793,87.7266359306147,30.9545852860445,33.361415038725,49.3843716587596,49.5778953943658,24.6390458046715,22.9365662259208,25.0146212103079,23.9077670325542,49.9945579295439,49.6262846264814,20.5345422139756,21.2409549729101,4.0183379465341,4.65268146157673,2.05992068367638,0.817449980991991,2.07046417812648,3.49469956983772,2.59450735343211,3.94711708342248,3.02616931938037,2.4579089793277,50.2423605977296,49.3843716587596,51.0242722387661,49.4758597086486,7.51033696088343,6.78278022769373,27.2727272727273,25.4545454545455,10.6135512043141,8.30103342798021,4.93232219317911,4.00250396790895,80.1220562656463,85.2644659411739,6.75336483140353,4.96152171335262,19.94,19.94
SS01,TOL50,3,STIM,50,TOL,PRE,SSV,2,12.3734254979022,12.5053061278361,9.89855525706349,10.2057119728972,17.4951499834739,17.2156474505674,0.161184670091492,0.154191691113764,0.164227514608717,0.161181549248816,0.175080598595815,0.172164356198818,0.0927999377328477,0.0950959147563351,0.141652593522844,0.140647327000063,-24,-23.75,0.46213196595481,0.496976244130604,0,0,0.901822359312067,0.897595679272354,-1.71428571428571,-1.375,0.897304477473775,0.904942250103775,-0.285714285714286,-0.25,0.810498516452562,0.814499074014336,-8.28571428571429,-8.75,0.817422638790773,0.822042370332541,0,0,0.840833818885134,0.841188449677026,0,0,0.935505365391133,0.932516874674079,-1,-2.375,0.827993694636138,0.832843064127341,369.427535036427,414.20669215845,66.0417570671503,66.8516717364825,-57.7341358246851,-51.2436770887832,19.2267568836588,21.9902169907114,52.1960707281808,51.9910540708149,112.718125760196,102.269614889074,29.4459126793703,30.8814564186866,6.38629712331909,5.04686120916858,26.8075814693251,24.3372473529947,58.9950029107382,69.0902541361272,35.8497458385842,33.1665592587215,6.4586047502031,9.45244587579879,26.6817012055077,26.8116745575434,378.056861761467,443.258505869213,60.6925138096934,60.3196894115203,3.0166982700433,5.20439594458197,27.3684153404739,27.6548124539505,10.0333667771607,9.72608015183869,57.8873618463861,56.7071795512959,101.237283735818,99.1025490365862,36.3326402592617,35.4461045795562,116.233789825402,113.581115829923,12.1633144400626,11.4213639798578,38.2192501689456,34.6139109932213,70.5328335240658,69.1604606750451,10.4751519921875,11.7116073029026,151.021965912269,152.302184397882,11.4640123042938,11.2959639736561,57.1428571428572,58.3333333333334,47.672737594584,45.7443187703018,126.225927067049,96.5135452758424,39.2313151796506,37.9847436126758,54.6688464908566,56.076261488786,27.49914664911,26.2578671313182,26.4988340163563,25.4149230872814,53.2741969460997,52.0897455587761,33.3388751165532,32.9168554736084,9.62966970686,9.43236282584447,2.72192680328234,5.02889873020242,3.01987952873848,2.38941656849588,3.20314308446834,4.77495596514769,3.81668544946761,3.09192113621712,56.076261488786,53.3640868333457,56.2874120539065,54.0232664149311,6.13239445444864,9.21915190148705,63.3802258767585,62.8571428571429,7.61620932147899,10.8045175003243,21.5363633965751,18.8022969059184,116.907964751375,122.138011837683,20.0965087011368,17.7480731314998,19.65,19.65
SS01,TOL50,3,STIM,50,TOL,PRE,SSV,3,12.3578523908412,12.4428881664398,10.9701316420626,10.9194240346791,16.9012523160759,16.8349077898708,0.166764319312309,0.161642489734327,0.179483510389435,0.183027849749686,0.18210229818549,0.182854940039079,0.113768459171043,0.115755740691345,0.145087285652919,0.147696463177178,-22.375,-23.2857142857143,0.527938404409857,0.522654770638806,0,0,0.881740545627134,0.88219575369179,-0.375,-0.285714285714286,0.910363889729129,0.916903704654539,4,3.42857142857143,0.771362668117531,0.79653846633916,-5.125,-4.14285714285714,0.836359333035824,0.823179387315157,-2.25,-3.57142857142857,0.84100191878687,0.841008552407663,-0.625,-0.714285714285714,0.927306227780137,0.926332259747888,-3,-2.71428571428571,0.853070717046718,0.857001019914965,312.668600540315,297.492032272587,66.7298761764902,68.0496621924504,-50.8815406290642,-59.4521989566347,27.3369418113194,27.8476969990761,48.4429579299207,48.9150307481534,40.5548352933133,44.567735899693,31.3195802076865,34.5210255665659,13.911827428063,5.06575379883686,18.8602877623542,16.5182536000697,132.498551058195,120.838016644697,23.3140180922541,23.0709655596471,11.5463842628282,11.0541625512615,22.8471946926249,22.8609350271633,479.838648300157,468.454500302262,61.265064759596,61.7525627594247,5.05094735917427,5.46895709391387,26.1372140503318,26.5329243237725,10.0909107519079,10.321913865339,50.2761797163823,50.1935963661388,93.6519436384489,93.5232324193129,23.6728409753576,21.4139448807202,112.548542209455,112.167746011425,9.76216684843835,7.68316269773937,30.375893268935,23.13215419475,62.9588584402083,62.1772437975365,22.9691315745606,27.5409874174328,125.853653282916,128.606538977776,16.717324871284,22.4687327306474,70.8333333333334,71.4285714285715,39.8767648872729,39.6899960382275,69.9509912094208,80.2501725327812,32.620323458705,32.1065739191832,48.6183999462342,44.7070606619258,23.4726478913378,21.9788988072631,23.3392572115717,23.481511029741,50.1156380899603,50.3904875989439,23.1210955748567,28.6011424357236,7.55633293341129,9.94554419282268,6.57428779947761,4.75368819279517,6.16107848673604,4.85961644295549,6.09273668524823,4.37175118831863,4.44704023705741,3.73065465818998,49.2377256982327,48.6183999462342,50.0545575651849,49.9244392084765,14.759897806595,14.620728263953,16.5645424836601,10.1213818860877,13.1210649087371,15.7668580054722,14.5328736522801,17.0914941998389,63.1855135019566,64.2270369845957,17.9105213476853,18.3834758464298,19.43,19.43
SS02,RMT30,3,STIM,30,RMT,PRE,FV,1,12.1286863997911,11.9449264856419,12.5329182521209,13.234570528737,29.3367673956102,29.2899749726278,0.175628172897666,0.182068481955739,0.24223249267001,0.229595953164466,0.333966290915502,0.33366180846931,0.157637635078783,0.165621061577124,0.149349407259016,0.146051799165717,73.8,74.4,0.31906638711706,0.334648830351961,0,0,0.850250264352484,0.828983396383833,29.2,29.4,0.119118604536199,0.120654184450744,0,0,0.795340242640529,0.786344631500557,18.4,2.2,0.726004190331216,0.756369205450302,-0.2,0,0.815229640044965,0.801694770223581,0,0,0.918870719011143,0.898121397870706,-0.6,0,0.90415690034598,0.900921996436876,6102.20841032065,1204.28921286307,127.964208013985,125.383207389821,-81.1533361905644,-80.9754303684463,98.0931576759057,95.983666599215,34.7046334744463,36.1326908102385,157.259488653637,157.439781063601,69.4941474324192,67.1715049572397,11.9481754908323,4.19418369013023,32.045862578054,24.045295871454,158.688156045954,159.020751367589,16.6817282298332,14.8583558252274,28.3774978832483,28.1508109830379,56.6266569692172,57.4034734251184,-192.249001607681,-181.656724894292,75.1837723759436,76.448263930487,38.4466019417476,153.78640776699,39.278138676826,40.0808505315822,49.2075962562934,50.1092405161657,299.215812612497,301.219456529523,170.245406384033,170.494253278183,-294.477089535781,-294.608327988527,89.7160056268324,90.2718487420658,51.8657808342288,52.1813190042399,53.7434557175575,56.346239758332,103.954866984464,103.617472489561,41.8430883237238,44.1140681315178,156.413264783996,156.96826158499,41.2640620889885,40.2420847368439,21.3333333333333,21.3333333333333,185.446717765246,185.188811251697,118.941604357706,128.365406064612,186.320018621714,185.813036795877,68.6610169294042,66.3834731305171,39.4233771548148,38.362761431413,37.7473670187738,38.4480659230293,55.232931350731,58.5872121483584,48.6249843563637,46.8927831917407,28.0000846844434,25.7412290818637,3.86938768635364,2.29153325095413,5.26414809722738,5.33813186585996,5.04522263356109,5.8563843005647,5.49641362963616,3.63846601546047,65.7837015813368,68.6610169294042,65.4874830158776,67.528799706137,32.2692659746439,28.6372445420736,77.8126589174208,68.4651253605926,26.6118125129701,21.3574924106224,22.4545580765168,15.321328695399,117.519551486765,144.081009536933,21.9892038468082,18.3994090493658,14.53,14.53
SS02,RMT30,3,STIM,30,RMT,PRE,FV,2,11.3448516094294,11.2008237922812,13.2542101648875,13.6605567575917,27.0022970403446,27.0007577234521,0.160446076573417,0.138709268225403,0.243759672327192,0.251526477737405,0.342035371490065,0.337964104960399,0.153839772189002,0.183031845002809,0.191442624068706,0.177006746713882,53.8,73.75,0.244597532255081,0.253596057635373,0,0,0.860092362195717,0.846931431196818,25.8,26.75,0.157961196050515,0.127120237766866,0,0,0.875836028731093,0.883519621673519,1.4,1.75,0.816843725478509,0.825922216281017,23.6,25,0.697742960008427,0.660610482889508,0,0.25,0.917867007979192,0.891767818045434,-0.2,-0.25,0.8650201844396,0.881900041961069,6064.64894803475,-77.491906831327,135.026466689371,136.66522584551,-89.5321685815383,-86.7265362852153,107.119808661855,106.033247751123,34.3618911696639,32.2171084549103,111.654758233852,131.773780260831,81.7558605048987,80.7562961458328,10.4413055949974,5.18708313991795,34.5212883225795,27.297757793483,127.065477537839,79.247751210368,25.5395116935027,17.1088387893176,32.3967634982216,33.2504925944996,53.6720370562742,55.0600030671858,-252.054356287486,-254.510834729245,72.8896080532506,75.7550724924598,40.4,49.489898989899,42.8043975727635,43.6911008781323,48.8984732520544,49.745252640477,278.82743630931,288.561370103484,163.176664557275,168.508656573968,-291.970721279158,-290.338709354195,86.3594459004529,90.3073933635543,104.561808525435,124.729460207167,49.3537564714035,43.8954218095985,101.180841615276,103.072465019371,42.7841412544585,46.3960535599926,155.11533066384,155.163129553374,48.4650701522306,51.1226819863626,21.3333333333333,26.6666666666667,153.48834400949,152.641533605799,149.236583304062,164.631457778678,135.863084899462,135.927142947759,69.7500388382429,71.1775633477468,39.8538530213376,42.0728110228734,38.2344104986523,38.7728393821863,55.9589101379005,56.76864937712,32.4732575499203,30.3408848543344,22.4787921146837,20.4822469068453,2.48431807711408,2.86677773039271,3.0497823678605,8.76708156118785,4.17493479574934,6.23008496701752,4.36356863181309,3.39395579446077,68.8901026262493,69.7500388382429,68.8726865949699,70.0567828117109,18.3270620738144,20.8133353147581,64.6029182440836,79.1019803226595,16.5244440018526,17.7581024208043,12.341513856854,8.8466841172688,151.071109982957,127.637741046832,16.3864694212571,14.4514449671378,15.19,15.19
SS02,RMT30,3,STIM,30,RMT,PRE,FV,3,11.4167332834732,11.7292957645381,12.0655412592325,12.179653961174,27.8047464507952,28.0574695661629,0.168275157262874,0.168827760872026,0.208845641141297,0.220956113485189,0.343831621040277,0.323887092691739,0.145918244650419,0.137367589389088,0.147618774888084,0.13728307114648,23.6666666666667,52.4,0.251024490057917,0.220232599164796,0,0,0.871546400219193,0.872892423365312,15.8333333333333,14.8,0.233066529273772,0.223185906334183,0,0,0.854549843696208,0.835453989609539,0.5,0.4,0.790875659039524,0.785107134267909,8.66666666666667,10.8,0.707864470054795,0.700386100189104,0.333333333333333,0.4,0.911118652450951,0.916165868556707,0,0,0.914640056640345,0.925102837271259,-9394.85407372527,1821.9972439313,140.348810284211,141.987308178709,-70.4776805598518,-78.1421383829579,102.272883910688,104.534923108258,59.2637175023197,66.6732205681028,162.56437948283,161.156087876181,77.6867876908147,76.4182928317026,8.17998463574041,6.51061229164117,42.1906806326952,37.7270315163837,157.41278625631,118.69147882168,27.9168562309015,21.9317025727098,33.2024161861076,31.1755208022558,55.4433996983617,56.7571101422951,-928.094403766429,-323.372852284102,75.4491221362849,79.5804740400817,32.712235624857,39.2546827498284,43.1123421340177,42.506792990659,46.9044398469675,47.920312966819,254.516078042545,263.875858273711,151.909491557796,154.063972306097,-322.210212088995,-325.803719482821,77.9882391324187,79.4454449164018,28.3462134633911,26.2140047537915,39.0207820045813,42.5482994648435,101.405934908494,102.116875498885,30.3746427261902,34.9935309076602,150.409082448894,150.890973224307,34.9749971574707,39.4065538793865,0,0,162.42658041486,156.101497674778,126.418176714993,108.37172109569,152.822403315534,143.716603176276,64.6914987437815,64.6950870908738,37.3138878021462,33.4573627349162,37.7390366656639,36.1211770160667,56.181803833415,56.7092517167151,53.4950441558032,43.9872561004098,32.2449618608348,27.4998868862049,3.18616247160788,2.14531453474221,2.89984165782806,7.5197695381868,3.46774815903835,6.72239191260911,4.02389943098564,2.78232243472582,65.7899672117435,64.6914987437815,66.2096725115887,64.2812612335909,12.7708008635424,8.80778511024968,83.4924411639525,72.2604045570799,12.4581469033385,7.21584935189312,16.4819772088525,15.4752637435438,125.204842924141,120.958970233306,20.5129062407983,17.2718719717497,14.14,14.14
SS02,RMT30,3,STIM,30,RMT,PRE,SSV,1,12.2953461159725,12.3351542270396,12.4598985862625,12.7902990596697,30.4168095186338,30.5674153977981,0.166400201348701,0.166437808314894,0.210443060809759,0.213166400038879,0.285622766712357,0.282215390509879,0.177039457239489,0.175927980718231,0.12153219668178,0.125032948057434,76,76.5,0.28163719137317,0.283927617791077,0,0,0.856009359227828,0.843317094299301,55.4,29.5,0.0610505188867929,0.0522409972177604,0,0,0.751091124953475,0.751600808850622,7.4,13.6666666666667,0.772329923018274,0.791882671023641,8.6,15,0.858442079319658,0.822497538203973,0,0.333333333333333,0.876742611276654,0.875118238299192,-0.4,-0.833333333333333,0.893878890262989,0.881293801221286,-1573.24387558754,7721.9338921659,178.438632651724,182.889788818661,-93.3024448973468,-90.4350538491445,123.885125334157,123.696274328717,35.94957383577,36.1400515748342,164.7327786622,164.907808631456,87.99908230196,86.006951253465,6.41262761374277,4.22682989102422,16.5468919823136,11.5870562437033,153.743911228774,157.327881810882,8.45570210168661,9.31368674966876,38.9180223400691,39.0342440908995,65.567034512743,68.6624774683204,-251.399897278089,-291.834301968269,89.5056379615965,93.2496236899452,115.739805825243,128.129706174501,42.6112794621063,43.9177417912718,58.6786442712749,59.8379207430977,340.273725074389,345.848968343354,174.539965653816,177.262381581217,-319.215052180121,-312.887894203989,89.1255142284062,90.8621101909745,127.226910792591,131.48799956671,11.2897809710263,9.40644810396027,105.055482904677,104.742989252129,45.5435151918396,49.6205342206176,156.402046542334,154.049844173876,47.3480706480471,50.1100182712039,48,40,175.291259271797,172.689038318414,113.436663888277,119.901366002348,175.716106249666,172.803957812072,72.0855064368654,70.207533906056,39.1501245690584,38.8568520414881,38.8880123967331,40.7059724376726,55.5492333503881,56.4780677663401,54.2545420909419,52.6363101794939,28.9862587334799,26.6497011480623,2.51548821592892,0.9932965569172,8.33538119506457,6.7559973650756,6.5320028462434,5.76472084074173,5.20518490599923,4.14127078345983,70.207533906056,72.3519571184404,70.3466270790991,72.3387944580817,44.271388979572,45.0168350491,73.3493685809647,116.550968576107,35.4730462484363,36.4479974211154,16.3990816056456,20.9869204113535,100.25974025974,95.5311355311356,20.2337654489786,21.2163678045259,17.6,17.6
SS02,RMT30,3,STIM,30,RMT,PRE,SSV,2,11.8217040787801,11.8604413836238,12.3675600404054,12.5195987166042,30.4385165022205,30.1844683915267,0.217174911375862,0.222861722801697,0.220880942431675,0.228202202084587,0.291128625117312,0.291294000564353,0.139042670907746,0.146856019203249,0.116420432326636,0.124888476683825,75.4,75.2,0.241800735779682,0.249591135877463,0,0,0.882445802913546,0.873312320789969,-4.2,-32.2,0.0132726045611161,0.0137291452743313,16.8,16,0.681318080589024,0.685133894950376,15.2,21.8,0.692926709666629,0.706528504889716,0,0,0.849959075999057,0.854528539635573,0,0.4,0.896715236723256,0.882495724381373,0,0,0.923496803695411,0.913707998662449,-1111.78071439769,-535.375852066916,166.748707510689,165.982716255326,-60.0322833669191,-60.601254781931,99.4499461383938,98.5091739335439,37.5583787053841,38.3976686680642,166.52975698137,166.443863469755,56.7100989690638,55.5737338019863,8.07673575567017,3.82452070435435,29.2109661622125,35.7832028700301,158.668619048219,154.218069597669,28.2647510829596,31.7122266722029,41.0423886070486,36.9381545752026,62.1559570984277,62.6510181463323,-255.135117445939,-241.372110732638,84.9384024080659,86.7775750364414,116.547886633324,115.677042267334,40.0127880431796,40.0212274765023,57.7585301880903,57.3942695482836,368.606590018139,372.719222324741,180.910301810616,180.872596138225,-278.186566941946,-272.718664516306,95.6172415252244,95.3462783523135,156.912098700866,156.717431743174,12.3728703367942,13.4611372765663,101.485192653814,100.659155477085,48.6166905533949,50.8562950733803,151.171758544947,149.103735770403,40.6903167368855,43.9939492376324,0,0,187.034350512258,187.51188862514,87.2889104664806,68.1142857142857,187.947844140975,188.269714242445,65.8183562041649,66.892952811498,37.8854819403978,37.1179538249507,37.105191881899,37.1545609758225,56.2295383867484,55.3221071730587,56.5525469320146,50.5114508305082,29.9489934739502,26.9318895201942,1.70917794468468,1.07086642254049,2.45676418597317,5.73536917722478,1.45131997437767,5.40352179947928,3.26299979624541,3.90778539592195,66.632424812266,65.8183562041649,65.9727504081271,66.1184556562299,25.7282867419551,26.9110521829529,118.641150326372,79.3365248421567,19.8132829694893,20.4740968689822,21.8964242785342,27.4147795953208,83.4920634920635,82.1587301587301,20.4602941470956,28.3915726660109,16.47,16.47
SS02,RMT30,3,STIM,30,RMT,PRE,SSV,3,12.6442321954722,12.5591890321144,12.2483316781471,12.5035359590168,31.1260806797055,31.0824297992774,0.209993071601072,0.205554396799196,0.196141048241009,0.173497057632995,0.317356572501863,0.316332118936228,0.136965466698311,0.129702842437583,0.13687336082824,0.1352942234679,76.8,76.75,0.255755684130207,0.253609664056754,0,0,0.905679828656854,0.911920885752075,-36.4,-30.25,0.0446788242967104,0.0400910799213545,0,-0.75,0.74951232780153,0.779756456294429,-2.4,-0.75,0.815522085766012,0.837152384827102,0,-0.5,0.868429528507175,0.876018353088219,0.8,0,0.906732733124824,0.917827359519318,0,0,0.910806472252646,0.898213409563318,313.431887550385,5079.88895312299,159.059483793887,163.709924483989,-79.09539503786,-78.5619981866355,112.110068290297,113.790842336637,35.3156715085719,34.482900173264,132.951271592015,127.421907359435,83.5255812342754,80.5305679775944,3.77524844203012,5.48551824279154,36.0381928383253,31.1418608671576,153.448761626526,152.703634085213,27.4165903036615,29.7869651435919,44.1086445974946,45.3376194935218,59.7969153454765,60.3739884845645,-543.731397297037,-679.699826640413,79.0874392301672,82.0120414827348,38.4466019417476,96.116504854369,37.2964489902963,36.2873611845584,53.0158867841725,54.9587127604523,331.056297119415,337.235600781264,168.555930845146,170.844771315905,-358.51230940564,-354.589568525499,85.9394730435525,86.6923104952528,73.2928156637093,83.6224018856417,22.7015648126678,16.1152882205514,102.928236801979,102.066178000045,44.4926487654929,38.0503272240937,133.286977763616,130.355136379847,45.966411778003,39.4298387908719,13.3333333333333,16.6666666666667,185.76325833983,186.197766582759,112.775452115658,87.1593217834584,186.162026440536,186.696091956362,66.2414514595918,69.1257719617699,35.4246094196403,33.8899576755295,35.6649216862414,34.6269881742658,53.0505050246745,52.4603200612403,55.4999925725823,49.1849706030771,29.1478114267757,25.429029675163,2.35501897589816,1.57633816328401,4.89876179810607,5.52477227571719,3.42160581620344,4.93235538852678,2.25030342914341,2.54160046409871,66.9472915061662,66.2414514595918,66.428714081763,65.6820723736328,18.3622306508482,19.4778327428085,103.006391982002,88.0092040312789,12.7636247758817,15.2544491885982,18.7340583178088,15.9152051438259,105.162730215055,100.482951934565,20.7350318385852,16.3919310393527,18.46,18.46
SS02,RMT50,6,STIM,50,RMT,PRE,FV,1,12.7902374003256,12.5970567618658,13.8801900147499,13.5921376867148,23.2911049199101,23.5279923240536,0.146390751933392,0.130851698188932,0.287836534081177,0.292078157674966,0.169498968208848,0.166458192698964,0.229322734192469,0.206409131542749,0.0999085948961912,0.103749469414609,47.5,38,0.441251993663608,0.476016969921453,0,0,0.854540227179961,0.868271209275661,7.5,6.66666666666667,0.61509319602253,0.594046844330513,0,0,0.943090726123486,0.952804839412763,23,26.3333333333333,0.692038255982978,0.728616723196814,-0.75,-1,0.895072534539304,0.896891545974865,0,0,0.896424958158919,0.897740255339917,0,0,0.949021126381028,0.949574697549053,-605.051668425908,-83.7218199642126,52.8071570225666,58.9006619469181,-114.439985536876,-123.445276290754,92.009295927842,100.510386455149,38.1326959293061,36.0818713450293,130.072920528983,118.983156250237,76.5951559870358,90.4394862305521,2.90050621495646,3.14327197409524,32.2714146161963,30.3616268264121,39.8366848149299,64.6192801591609,33.3661797167966,30.5950166357472,27.5108833199903,27.5694324028343,44.194224632801,44.0285225679852,-178.584658090478,-171.334240465088,62.927498763839,64.5557774699197,49.0683534372855,64.0776699029127,41.9596832367142,40.0015958407351,44.6447129093767,46.2470977911394,144.531142777457,151.171081979268,130.593431925531,133.417064131337,-201.115968160815,-203.403990712562,86.6977489247347,89.4894770679196,118.893830703013,153.636963696369,44.5940680786528,51.0905349794239,102.965994729776,105.89378058048,35.6910019624627,39.5843605080893,145.740359483096,148.823866896156,48.3102098182935,55.5732995839794,0,0,18.5195854623541,14.6529127858944,71.4063714063714,78.9817112397758,17.4380382057405,15.7307711648455,64.8158947693411,73.6475339193871,35.8417331382054,37.4704491725768,37.0890301165039,35.0598118590455,55.6848821590223,51.6795708593665,33.1183932667205,31.2253186745749,18.9531916633362,17.6602568208339,3.66212631304982,1.29201985030206,6.66250770557382,3.37618688959258,6.35814949646826,2.08396419420871,2.48741185239798,3.14078904533187,68.4058136097035,64.8158947693411,66.4311325395049,65.5759460839022,37.2704973207557,31.9763304345372,106.48150629858,101.161209626985,29.9017216242478,23.6303199680716,12.8067064139825,7.17263741589839,34.75935828877,50.2673796791443,9.22213068913293,14.0695899832561,12.82,12.82
SS02,RMT50,6,STIM,50,RMT,PRE,FV,2,12.1026068190466,12.3267397547868,12.4584550002739,12.8756950249738,24.5921294216619,24.4778121612256,0.125167326078845,0.112281747195306,0.240621417942392,0.242448129541947,0.0996962709417032,0.0867770008866746,0.245219190229437,0.255578129058858,0.114131772861057,0.0910058923754657,61.6,58.25,0.428301054457757,0.509045597225388,0,0,0.844522293139966,0.832000654376999,8.8,4.5,0.6334060941621,0.622981080191325,0,0,0.935114850660069,0.937900780811283,1.2,12.25,0.757433101764329,0.776158779892022,0,0,0.956397943639499,0.961157716882381,-3.4,-3,0.899849104844175,0.892161487075178,0,0,0.949062206980765,0.967595792435167,-6120.39328412367,305.205061809298,81.93565461046,90.0186670448828,-97.9015742238935,-97.5334679869363,93.3775164717222,95.4097252950305,26.6198526685939,24.7221679836004,130.073878112388,122.840465908811,69.5939572638346,72.2586252451236,8.54981349459871,1.42089792229986,26.8034387603897,21.0360651752017,140.647624131479,29.9843014128729,25.6583686828997,21.1486862664555,15.6605371830991,23.0304034698822,39.7358007222463,39.710035273453,1276.13302814993,-207.807397722894,63.7538383599977,63.8763470775294,77.701284691576,144.096302834167,40.829352829986,39.5194397082515,36.0716253687358,35.5215633685763,151.327100603095,153.538687370563,134.444049596056,134.878382936357,-271.51128946513,-269.420070117209,89.9168345129692,90.4653031069493,45.5759395782853,49.8728801250123,43.9926831779252,41.2020210397032,107.245512019223,108.324233907422,31.5587475425358,32.0048144712775,141.093354084089,138.996249570419,45.3742871784025,45.3248101182525,13.3333333333333,50,14.9597507191001,7.69765714156034,52.5714285714286,52.5,15.2459256039797,8.50679707906231,57.8037949243698,60.6353765865104,32.3815927716312,30.7833201300411,34.1506360830802,31.94649543172,55.9650456693808,53.9582915670455,48.9749159865665,46.7041094450802,26.0606170903408,24.6806570268143,2.9610656906815,3.15388511436795,6.99829192099399,14.6325103202011,5.07532407860979,11.5533359137912,5.01666452836364,4.20184722848385,60.8781206103347,57.8037949243698,59.7070484308887,57.6286142635863,43.748363224791,43.2934375295254,64.6381671766538,85.1068985215325,41.2596147352917,41.2621261103527,25.4274896280898,14.2770911857615,31.6483516483517,26.3347763347763,25.6788543090257,16.571053591251,13.4,13.4
SS02,RMT50,6,STIM,50,RMT,PRE,FV,3,12.8167449177033,13.0737078244611,14.3227353845632,14.6551096807071,23.0688917463097,23.0298733425994,0.185189925909696,0.171998267744646,0.251351168861893,0.248009782329557,0.144863018315607,0.140787692637237,0.278649823970368,0.270646140854997,0.150020741210928,0.127173968833845,11,-3,0.432405216636707,0.42278159579738,0,0,0.808357985122534,0.79967930284637,11.25,11.5,0.690987921588303,0.693240457268338,0,0,0.942948032755443,0.936688136479308,15.75,10.25,0.701495743030918,0.73476003487144,0,-0.5,0.905910591132345,0.927870733188895,-1.75,-0.25,0.902093219349112,0.911469464946478,-0.5,-0.5,0.909471563244091,0.933696345960685,21.4149804539025,-321.728899850972,55.4059950473508,47.6778812598863,-107.681597179514,-113.451828205209,89.3400497332964,89.3358622407042,30.8134475701199,30.8107368452196,120.119065331831,122.242640716918,59.5254911473573,58.2214997849071,8.02832659305882,7.12946610515983,47.5418733914579,43.9033158833925,51.11832986833,96.5223017653834,52.0261997210825,47.2366631067169,19.9985276288317,28.5179000155059,44.0974575023964,44.8252372770315,-210.937289206072,-178.032375705154,73.2612773127659,69.8420183560723,50.0401070719317,49.5786605904498,44.3242800414587,45.4150197628458,42.7411651966417,45.0742063243543,133.378975734953,131.40705306638,124.815477388345,124.636997275157,-188.832588506513,-188.706716887154,82.4748666211725,82.823173387514,58.2207169965008,57.2356145810113,74.4362108479755,75.3551297668945,93.9843256684892,93.7716434252802,22.2073683187752,26.6730311288053,141.518511018865,143.561863769898,30.4374351655053,37.3256243331847,0,0,19.8371956330446,21.6393350783937,106.824801666445,104.844458504693,21.0689470524096,23.1503553471528,70.8465666048037,67.8437214949861,43.299216226733,38.2607949089412,39.0350153738433,39.2211767305612,54.7433986708542,56.0461915432403,40.8578973180059,40.6380875176357,22.9195682659379,22.1115461550337,3.41308917427,4.49624412192472,3.57326502658052,2.49380313846391,5.15975151528897,5.36263601058972,3.70688115868541,2.48840156868946,67.8437214949861,68.6628752641618,68.599036803045,68.8264508757869,59.2139621311483,57.2775206739094,60.9016141335107,106.871816992844,55.6118992673619,53.9374540658707,22.6746109672187,17.8495651381242,81.2500000000001,107.622843068067,24.9453952294737,21.000884941149,12.65,12.65
SS02,RMT50,6,STIM,50,RMT,PRE,SSV,1,12.5504774901791,12.0334237136435,13.7771194059363,13.5487135302282,23.4421716127988,23.7553754882344,0.113323359283807,0.112691669216268,0.258579038273146,0.269745556162942,0.108931365147033,0.100967224730524,0.264477172451378,0.254588627086129,0.150241314121523,0.136645155456431,11.75,47.5,0.359779483485325,0.377118465805054,0,0,0.854657391993627,0.86311246208737,12,11.5,0.646084966796957,0.624119313229194,0,0,0.891267692292582,0.884547071575831,35,41.25,0.715814937266608,0.747786024431057,0,0,0.911610652023642,0.920454656702059,0.75,0.5,0.928623417075597,0.921102888364811,-0.5,-0.75,0.858276604081317,0.872234125502021,386.581489912731,-128.519864064809,42.8276036979736,49.0655706964029,-114.833250326879,-122.257746340286,90.7133320718661,97.5514782175565,33.9081736723246,33.3425466036063,128.883364168979,146.84287077363,64.2914997144427,72.7919416949291,7.9965981201485,3.83993113025153,18.9282693521307,11.9338297913347,162.05867284374,133.833363066734,19.9027029681349,15.0528064601918,12.162885072169,11.9133020862729,45.4098092810638,45.5933839416451,-510.337156632185,-604.216198877521,74.6721011063844,77.4560882628241,49.0683534372855,0,44.7385296639058,43.2063338959891,33.0124445842637,33.8471003789582,128.358594219163,137.139621643384,128.64871310184,132.467213925581,-222.386500559214,-225.249960358802,91.0885240060744,93.9988768671163,66.6509552538965,96.5479544557353,62.714288237996,60.5002405002405,102.135397792595,106.756039363031,39.3952586850083,41.1058424326391,145.197262837482,136.023079088095,40.9388794625304,41.482181347249,16.6666666666667,16.6666666666667,8.77206350482991,5.79007826435226,77.056277056277,92.8947368421053,10.4591240014566,7.20412269445656,75.2609332492208,75.1330941343712,43.9182917533121,43.2025664516978,42.0552505085128,40.312223107558,59.0493619262547,56.9409152632094,40.3020218767458,38.8198696601699,23.8250127509347,23.4885094204284,3.82075280945423,2.8867241434452,2.49936650400552,3.08365234071686,2.30249593957349,4.7886020028758,5.76374577361709,4.94746802853989,75.1330941343712,72.185410726682,73.8742346915296,72.1182172405809,65.9586862259498,65.2280510029834,48.2541141456583,44.1045447926182,60.650344867778,58.3179469651017,13.8648746400033,6.80474665422723,77.048951048951,75.5498721227622,16.5312605004394,11.1375216688359,15.36,15.36
SS02,RMT50,6,STIM,50,RMT,PRE,SSV,2,12.1690721773303,12.2872680880522,12.1458367837541,12.192008248714,25.9088907409909,25.9099178259484,0.115415973100153,0.108978663506767,0.227437243854497,0.239612957500314,0.118693010514331,0.123415627031442,0.163693209706599,0.180670419797245,0.11428763882174,0.120478701329514,54.4,42.8,0.39328991500188,0.381584854459804,0,0,0.875234388987746,0.876964477003314,8.4,8.2,0.510475062810268,0.507325624348581,0.8,0,0.875345583334299,0.881244854871896,24.2,33.4,0.752944981664429,0.756151727594521,0,0,0.909237031555643,0.903708743640725,-0.2,0,0.910911879587251,0.905280252177543,-0.2,0,0.910480347240522,0.901844985500755,-37.2866032888946,363.606198931776,110.067872230801,112.986776499293,-106.446279609995,-104.306724925153,107.770598129315,107.362184222194,37.2808994135169,68.3373054104762,110.788113457047,98.0430128514162,78.4673289530992,74.099044569195,5.06655938215272,3.3713568924391,7.24774197049262,5.62755465658402,130.209374823907,136.355718942341,6.96474197639593,5.33435511103411,26.3238550937647,26.5633979663722,49.4861142114076,49.8141838784616,-347.610710188896,-346.584613282239,72.2759068277933,74.4261890348849,115.339805825243,38.4466019417476,41.0758118217167,41.0845306491947,43.7421995239602,44.9098169385396,177.413615690132,181.114572967805,139.832229051932,143.568074904975,-296.605237645865,-297.207040912266,91.5375769070094,94.3855422366909,148.968548692381,149.65206193234,45.2792987549678,39.5240695240695,116.26020669016,116.767884675361,39.2574773474831,35.0037270230538,148.454399754597,146.704495471866,51.9639978107104,43.337038664997,40,40,11.9364019119153,8.80582260629318,76.8,73.6507936507937,10.4795233869154,12.4617818648934,68.1610267492103,71.1282115750072,36.2913172373636,35.656231071653,37.7110369980197,37.2432597187056,54.6707920496226,54.5606338332723,45.5146467795662,42.8483894559959,21.4034205184687,19.4137670301095,3.66025795184674,2.11110555854889,6.76029236071556,6.02670019162848,4.38391353855651,5.38847087227538,2.5825097698249,0.809717792506967,71.1282115750072,70.8580761268432,71.0829219866394,70.6895845139281,29.9230794776638,34.768543171345,41.253353940837,103.202244876944,26.7123219569643,30.5622837317093,25.4493441606451,25.926221307148,83.3276353276353,79.2851592851593,20.5533057644996,19.7004147635288,15.72,15.72
SS02,RMT50,6,STIM,50,RMT,PRE,SSV,3,11.4826351563115,11.547613624341,12.3055231314274,12.2642804141239,25.9170523586587,25.7604697508866,0.114995559399382,0.100181729702287,0.249998397485915,0.235328645198041,0.09691604192731,0.108196492188706,0.186784504955942,0.164647569146061,0.119353062557632,0.121401595095986,59.5,45.75,0.416507246170271,0.413761011986878,0,0,0.869179906116959,0.872382131290449,10.5,9,0.524045439520481,0.522013817504024,0,0,0.902551184109626,0.916365553677146,25,24.75,0.727928081960871,0.728938713884631,-0.25,-0.75,0.947402233689137,0.931237837702052,0,-1,0.911703777999325,0.921306660292676,0,-1,0.943077287583537,0.936366249809798,-182.927218519897,-181.968802469901,77.1308452800111,74.2579496865959,-99.7000364888824,-111.017716899922,92.2163024847742,98.6345152817632,33.0037299071372,33.0226549292988,167.515605493134,132.723431375117,72.5922017108233,81.1499141308877,3.7914148469744,3.87867178325244,14.0987185900626,9.09110995329326,88.4762132440832,44.4468085106383,13.7912257158416,7.59921165827603,22.7094203219267,24.7867542781949,42.5727993353521,43.2999857530076,-203.725919759203,-183.167449029866,65.1183348072823,64.1514921068154,96.616504854369,96.0780544073825,40.3678202817548,39.8567941061075,41.9908825390545,42.9229658009844,172.949573760005,168.586567911972,142.980373492683,138.045740706117,-246.618233843985,-247.473283548819,96.0014080593705,92.5975536810962,127.70883128026,155.676767676768,41.1489964143479,33.6625325352882,115.847124654911,114.107139825441,35.2885554865677,41.7744086834076,147.317842799771,146.295433836185,37.1907791100676,49.0240172433228,16.6666666666667,16.6666666666667,11.3509054257711,10.0387326273417,86.8913196894847,93.6805299963194,11.6960732745472,11.4104244596966,62.1834818160112,61.918828986774,33.4371340776735,33.4139531341507,34.0828462631874,33.9809762505772,53.5585771729044,54.7298460452149,45.7402487972996,44.6183877898116,26.0971554239473,24.7487754431037,1.73962390778755,2.03599705692537,1.8770306874075,3.54535765790522,2.35739420853552,3.366995876802,2.99110017102905,2.39445396679328,61.918828986774,63.5979637849159,62.6700818956444,62.5853332383729,37.4172930370393,29.6044544430663,111.648094020217,109.787158634827,33.4510992364203,25.9864023950159,25.5127072890593,25.3836276755537,119.120245447822,117.812065610231,28.6127294574537,28.5203758986062,16.27,16.27
